FrameNo,Row,Column,Angle
70,8.518604651162791,748.7255813953489,0.12956516722783903
71,10.149647887323944,749.362676056338,0.12071458728506473
72,11.59625212947189,749.984667802385,0.12152774619738309
73,13.281569965870307,750.2645051194539,0.11279065456368416
74,14.833613445378152,750.8067226890756,0.10589132562076464
75,16.387205387205388,750.9326599326599,0.10251544891566744
76,17.853989813242784,751.8947368421052,0.10115444907274483
77,19.379767827529022,752.4195688225539,0.10488402497038085
78,20.949238578680202,752.6260575296109,0.09238518142330696
79,22.445193929173694,753.018549747049,0.09707601435030984
80,24.06655290102389,753.3703071672355,0.09287548022960455
81,25.51858108108108,753.5878378378378,0.09063498232577569
82,27.07204116638079,754.0617495711836,0.09076104850866318
83,28.55112651646447,754.2443674176776,0.09097371314868442
84,30.109540636042404,754.13074204947,0.09744938797981452
85,31.595323741007196,754.5287769784172,0.09575462322059786
86,32.98178506375228,754.2932604735884,0.10430647769598415
87,34.37174721189591,754.9516728624535,0.10689658364180105
88,35.99441340782123,754.7448789571695,0.10496104803196173
89,37.40190476190476,754.1466666666666,0.10885146734816968
90,38.96518375241779,754.5551257253385,0.1191882050287579
91,40.236472945891784,754.5891783567134,0.13189504763379375
92,41.840860215053766,754.7204301075269,0.13449247768208966
93,43.23464912280702,754.3881578947369,0.13793773095760917
94,44.61697247706422,754.3922018348624,0.13909556938141912
95,45.99760191846523,753.7769784172662,0.1451622936168923
96,47.46493506493506,753.6961038961039,0.15031064416564532
97,48.81675392670157,754.020942408377,0.15962967715724183
98,50.35072463768116,753.5014492753623,0.16528546214513534
99,51.701492537313435,752.8985074626866,0.17719397076447194
100,53.2275641025641,752.5,0.18871328143136035
101,54.624548736462096,752.2671480144404,0.19645785537783841
102,56.10566037735849,751.2603773584906,0.2209994716079825
103,57.5,750.9915254237288,0.23019837039592653
104,59.14018691588785,749.6775700934579,0.24675713277898592
105,64.01754385964912,736.5964912280701,0.27888660241632884
106,63.48031496062992,744.1338582677165,0.3036395846361749
107,64.29299363057325,745.5732484076433,0.304772510771191
108,65.09289617486338,747.4535519125683,0.341632347532264
109,66.06565656565657,748.0656565656566,0.3451475374534442
110,67.29411764705883,748.5490196078431,0.367470665219943
111,68.67942583732058,747.9377990430622,0.40215545325805285
112,70.03056768558952,747.9781659388647,0.42155137768003714
113,71.10729613733906,747.725321888412,0.4663951624853809
114,72.58064516129032,747.3548387096774,0.4709818039262598
115,73.57633587786259,747.469465648855,0.5395140459548246
116,74.61567164179104,747.0298507462686,0.5449108925079669
117,76.17777777777778,746.3666666666667,0.610106513300234
118,77.3405017921147,746.1505376344086,0.5751454166592531
119,78.57291666666667,745.4270833333334,0.6447485928896869
120,79.57556270096462,744.9356913183279,0.7372562078573975
121,81.11074918566776,744.3224755700326,0.34211451512414076
122,82.36363636363636,743.6332288401254,-0.62644426077066
123,83.54601226993866,742.9355828220858,-0.6302418514239448
124,84.52380952380952,742.2689075630252,-0.651819411105748
125,86.0204081632653,741.530612244898,-0.629132332224184
126,87.27322404371584,741.0245901639344,-0.635409036911263
127,88.41978609625669,740.1711229946524,-0.6097987059438583
128,89.7696335078534,739.6047120418848,-0.5972437824214852
129,90.82506527415144,738.7154046997389,-0.5598978855114709
130,92.36147757255937,738.5963060686016,-0.5435990442332308
131,93.53768844221105,737.9874371859296,-0.5398959875306233
132,94.68434343434343,737.209595959596,-0.5097259514563726
133,96.10969387755102,736.6530612244898,-0.5063633121951429
134,97.19602977667493,735.8709677419355,-0.4875368762234144
135,98.5025,735.515,-0.48616684153862383
136,99.74436090225564,734.9348370927319,-0.4749477952075677
137,101.15308641975308,734.7308641975309,-0.47195852337948196
138,102.22727272727273,734.0479797979798,-0.46460228809201226
139,103.45038167938931,733.6157760814249,-0.45833268165989766
140,104.72020725388602,733.1865284974093,-0.4480714202961037
141,106.11458333333333,733.3802083333334,-0.44590093876917064
142,107.26525198938992,732.920424403183,-0.43591032227296905
143,108.40837696335079,732.4450261780105,-0.4359829492172569
144,109.83602150537635,732.3924731182796,-0.4330547216990615
145,111.02702702702703,732.4297297297297,-0.4388880978978709
146,112.3201133144476,732.2776203966006,-0.42930392762672476
147,113.69526627218934,732.2721893491124,-0.4311133615694383
148,114.80059523809524,732.0982142857143,-0.4304990996192644
149,116.39423076923077,732.9871794871794,-0.43348924140032113
150,117.69867549668874,733.0198675496689,-0.434203063207457
151,119.04362416107382,733.2919463087248,-0.44661079104014617
152,120.2605633802817,733.5352112676056,-0.44295627427089895
153,121.63272727272727,733.9963636363636,-0.44921203383939007
154,124.008658008658,736.5064935064935,-0.45587785032950157
155,124.86008230452676,736.0123456790124,-0.45869484082656947
156,126.76255707762557,737.7945205479452,-0.4636519149313035
157,128.35748792270533,738.8405797101449,-0.47066504860100394
158,129.064039408867,738.2216748768473,-0.48770879583684323
159,130.4926108374384,739.1428571428571,-0.4938524354219971
160,130.82938388625593,737.8672985781991,-0.5154674359887673
161,131.43867924528303,737.372641509434,-0.5207878381593399
162,132.76923076923077,737.8461538461538,-0.5388458944859956
163,133.67543859649123,737.8991228070175,-0.5476471373424041
164,135.19262295081967,738.7418032786885,-0.5648199332289552
165,135.6311475409836,738.188524590164,-0.5910795798924705
166,136.96047430830038,739.0079051383399,-0.6098313232705271
167,138.24701195219123,739.6892430278884,-0.6343796718561342
168,139.2751937984496,740.1899224806201,-0.676615390863395
169,140.22178988326849,740.3579766536965,-0.6888806480446487
170,141.4111111111111,741.3481481481482,-0.736218015236091
171,142.5897435897436,741.996336996337,-0.7743802292533505
172,144.02508960573476,742.8243727598566,-0.8178114146725376
173,144.90784982935153,743.4334470989761,-0.8598484449004189
174,146.29470198675497,744.3046357615895,-0.9238628120544595
175,147.25249169435216,745.0033222591362,-0.9677116334629101
176,148.37898089171975,746.1337579617834,-1.0225100287891342
177,149.40181268882174,746.9154078549849,-1.053799349223634
178,150.77810650887574,748.1775147928994,-1.2209211488580163
179,151.92917847025495,749.2294617563739,0.6699355197718916
180,153.22527472527474,750.2087912087912,0.47011160950810527
181,154.60732984293193,751.32722513089,0.43086776444327396
182,156.22262773722628,753.0036496350365,0.4745234225091053
183,156.86683417085428,753.3366834170854,0.3387453865898798
184,158.15107913669067,754.4508393285372,0.31414374464871325
185,159.37995337995338,755.6736596736597,0.2975666719325902
186,160.61731207289296,756.4874715261959,0.25116891157675475
187,161.94843049327355,757.3677130044844,0.23370478513133255
188,163.10643015521066,758.4079822616408,0.21992904591403112
189,164.4059829059829,759.2564102564103,0.19400817695163466
190,165.53991596638656,760.3193277310925,0.17478785552881537
191,166.75157894736842,761.197894736842,0.1650872939684793
192,167.96049896049897,762.3243243243244,0.14196696636509587
193,169.1738197424893,763.1094420600858,0.12568814383669077
194,170.42226890756302,763.4852941176471,0.12863868321638983
195,171.51991614255763,764.8134171907757,0.11441138114653389
196,172.74946004319656,765.3347732181426,0.10709906814387864
197,174.10593220338984,765.6800847457628,0.10058152868639092
198,175.12765957446808,766.5234042553192,0.08962265185256765
199,176.30155210643017,767.1552106430155,0.08511004389063408
200,177.51447661469933,767.3363028953229,0.07566511780909403
201,178.70615034168566,767.4373576309795,0.0681106404296333
202,180.0023148148148,768.1203703703703,0.060005250306654524
203,181.07852193995382,768.5842956120092,0.06215556628373088
204,182.16385542168675,768.6771084337349,0.052568664363039114
205,183.26884422110552,768.7211055276382,0.05103274881056675
206,184.4627659574468,768.7393617021277,0.054405712861025336
207,185.44415584415583,768.864935064935,0.045848448914328384
208,186.6512968299712,768.7780979827089,0.03981499462558837
209,187.61242603550295,769.1568047337278,0.04025171219961737
210,188.75641025641028,768.9871794871794,0.029715041247732894
211,189.82653061224488,768.5884353741496,0.03474915059790917
212,190.7630662020906,768.8850174216028,0.04118437026280203
213,191.91372549019607,768.8117647058823,0.03747632654519717
214,192.89600000000002,767.608,0.03504323930711092
215,194.08189655172413,767.6206896551724,0.05181065314422671
216,195.1231527093596,766.9458128078818,0.04589191665553359
217,196.32642487046633,765.8704663212435,0.04233742278800743
218,197.88235294117646,753.2352941176471,0.09667561842320484
219,198.37106918238993,764.1635220125786,0.07978699673339303
220,199.4695652173913,759.9130434782609,0.08566287501629398
221,200.40178571428572,760.4196428571429,0.09483602140078583
222,201.15671641791045,763.179104477612,0.09168747270208218
223,201.96527777777777,763.5972222222222,0.08424717142988934
224,202.99319727891157,763.9727891156463,0.08266924426350347
225,203.89208633093526,763.726618705036,0.08510402873770763
226,204.88235294117646,763.7352941176471,0.08484233058493504
227,205.80263157894737,763.6973684210526,0.08995932103431119
228,206.74834437086093,763.7417218543046,0.04449294104605463
229,207.60264900662253,763.1258278145696,0.016205735350216834
230,208.3310810810811,762.4459459459459,-0.08394138841553937
231,209.2911392405063,761.6582278481012,-0.16425408032265354
232,210.16883116883116,761.1558441558442,-0.22187185313205038
233,210.9298245614035,760.625730994152,-0.25948940934777326
234,211.7926829268293,760.0121951219512,-0.2948361068951174
235,212.6,759.2914285714286,-0.32694578212049397
236,213.56043956043956,759.4395604395604,-0.3041117448973208
237,213.99470899470901,757.994708994709,-0.30824858243108394
238,214.95384615384614,758.0974358974358,-0.3039796540361621
239,215.80310880829018,757.5129533678756,-0.3000134682207442
240,216.80319148936172,757.5212765957447,-0.2970322713393535
241,217.5204081632653,756.704081632653,-0.30277746944469897
242,218.41361256544502,756.8010471204188,-0.29744612897702377
243,219.30107526881721,756.6612903225806,-0.29576726044607665
244,220.03980099502488,756.1293532338309,-0.2939279735823989
245,221.00985221674875,756.3793103448276,-0.30787367948756694
246,221.421568627451,755.2892156862745,-0.2942559191121962
247,221.87922705314008,754.3381642512077,-0.3058081118307497
248,222.91705069124424,755.4009216589861,-0.3082132478780582
249,223.7945205479452,755.7260273972603,-0.30497715813485915
250,224.15062761506277,754.4560669456067,-0.3024040284538789
251,224.652,753.524,-0.3099928522419646
252,225.44534412955466,753.7813765182186,-0.3131337261159155
253,226.19784172661872,753.3381294964029,-0.3164276357006952
254,226.79929577464787,753.1091549295775,-0.3216350494483946
255,227.74744027303754,753.7781569965871,-0.3237708221018761
256,228.54785478547853,754.3927392739274,-0.32877335042006667
257,229.4102564102564,754.4807692307693,-0.34180446151184235
258,230.1875,754.76875,-0.34333794879104973
259,230.8865671641791,755.0208955223881,-0.3567394074260276
260,231.64896755162243,755.4955752212389,-0.3662726014874352
261,232.55555555555554,756.2456140350878,-0.37469669439996833
262,233.32,756.5828571428572,-0.39323853597003533
263,234.28011204481794,757.3753501400561,-0.4110791265405798
264,235.16758241758242,758.0054945054945,-0.420648799506723
265,235.69859154929577,758.2901408450705,-0.435170497421584
266,236.58011049723757,759.2044198895028,-0.4495527454227798
267,237.21195652173913,759.5570652173913,-0.4739141235316239
268,238.22991689750694,760.6842105263158,-0.49506623730724164
269,238.76566757493188,761.016348773842,-0.5279971715949174
270,239.64657534246575,761.8821917808219,-0.5390889636366889
271,240.2904109589041,762.7041095890411,-0.5714759775807038
272,241.15300546448088,763.8415300546449,-0.6085616978353775
273,242.06521739130434,764.7527173913044,-0.638773098938861
274,242.828418230563,765.7211796246648,-0.6808639116781265
275,243.56873315363882,766.8167115902964,-0.7480798330708798
276,244.36111111111111,767.6694444444445,-0.7793499404713379
277,244.9429347826087,768.5027173913044,-0.8316158460342273
278,245.98102981029808,769.9972899728997,-0.9378174957568819
279,246.86827956989248,771.1129032258065,-1.0893525619943907
280,247.4945054945055,772.217032967033,-1.315734326260715
281,248.47780678851174,773.668407310705,1.0936034689637177
282,249.14249363867685,774.7684478371501,0.6864344048825921
283,250.0383631713555,776.2710997442455,0.579882161344347
284,251.02249999999998,777.2375,0.5818108275284775
285,251.60911270983212,778.7889688249401,0.5362655331416863
286,252.7037037037037,780.0123456790124,0.4771566907837837
287,253.54939759036145,781.2987951807229,0.4247674903823449
288,254.38875878220142,782.5901639344262,0.3750822339449239
289,255.29039812646369,783.5690866510539,0.36747484872768904
290,256.1106094808126,784.8600451467269,0.3286549924148158
291,257.10933940774487,785.6173120728929,0.2948248510984824
292,258.041394335512,786.8300653594771,0.2712870538908396
293,258.8977777777778,787.8422222222222,0.27356371349328384
294,259.77802197802197,788.9978021978022,0.2525776792293884
295,260.63205417607224,790.0767494356659,0.21999253984167186
296,261.2737306843267,790.682119205298,0.2154664374572708
297,262.3552036199095,791.7828054298643,0.19869239628333693
298,263.2072072072072,792.5427927927929,0.18821297560339587
299,264.18223234624145,793.2300683371299,0.17321538219988789
300,265.10407239819006,793.7171945701357,0.16163947315151697
301,265.82151029748286,794.2425629290618,0.1548898136504601
302,266.8120481927711,794.6602409638554,0.13310885260752145
303,267.63438256658594,795.4430992736077,0.13033597297948593
304,268.3934837092732,796.3834586466165,0.12406144990597243
305,269.4912718204489,796.356608478803,0.11972294277917281
306,270.31297709923666,796.2646310432569,0.10343783086394942
307,271.36772486772486,796.2671957671957,0.09805829808383587
308,272.0245901639344,796.4262295081967,0.09326503441773519
309,272.8550724637681,796.8753623188406,0.07435816721149581
310,273.81065088757396,796.103550295858,0.07728269620306825
311,274.5157232704403,796.7012578616352,0.0681443177098358
312,275.3516129032258,796.4451612903226,0.06431331842605569
313,276.11186440677966,796.2915254237288,0.05785817531306422
314,277.1131386861314,796.5948905109489,0.055978680373248144
315,277.73507462686564,796.5522388059701,0.051450141173556
316,278.5,796.2734375,0.0513811584684125
317,279.3272727272727,795.9681818181818,0.03846460028065598
318,280.0288461538462,795.5288461538462,0.028771498634340986
319,280.82978723404256,795.3563829787234,0.030330201363284664
320,281.4728260869565,795.2445652173913,0.037166789643880226
321,282.4378698224852,794.6449704142012,0.035160385070532145
322,282.93333333333334,799.8166666666666,0.07516178782554458
323,284.0443037974684,794.0632911392405,0.014685153513321633
324,284.37404580152673,794.2748091603054,0.017090646103087682
325,285.1395348837209,794.4728682170543,0.005653522576684239
326,285.984126984127,793.3888888888889,0.028128456911053586
327,286.5632183908046,792.0689655172414,0.02427054838757337
328,287.19565217391306,792.7826086956521,-0.005801178526955444
329,288.0,790.0,-0.02383877937047555
330,288.9117647058823,791.2205882352941,-0.03121351580336757
331,289.21794871794873,791.474358974359,-0.05037298166614466
332,290.140350877193,791.9473684210526,-0.07986315469628513
333,290.61538461538464,790.054945054945,-0.04961792264055579
334,291.3018867924528,789.7264150943396,-0.07890993993494154
335,291.7798165137615,789.5045871559633,-0.060672274275547416
336,292.65432098765433,791.9506172839506,-0.08890079115956107
337,293.0,788.6615384615385,-0.0931673618067417
338,293.4967320261438,787.6274509803922,-0.08931326672723557
339,294.0268456375839,787.2214765100671,-0.09765118921712124
340,294.55828220858893,787.1042944785277,-0.09176701590431083
341,295.1411764705882,786.1705882352941,-0.0922271900535548
342,295.8918918918919,786.9351351351352,-0.10113513651183377
343,296.0357142857143,785.3775510204082,-0.09859541546023111
344,296.8009478672986,785.1137440758293,-0.10195180268514582
345,297.24644549763036,784.3175355450237,-0.11241724259838286
346,297.73755656108597,784.4434389140272,-0.11629435974391177
347,298.28340080971657,783.7530364372469,-0.1301468725647616
348,298.6395348837209,783.0930232558139,-0.119030330249113
349,299.3056603773585,783.5547169811321,-0.12347362779356102
350,299.66789667896677,783.4206642066421,-0.1365547101461531
351,300.2077464788732,783.4471830985915,-0.14743456260154497
352,300.84039087947883,783.5374592833876,-0.1493688771066059
353,301.371875,783.778125,-0.160697007797808
354,301.78086419753083,783.5925925925926,-0.16836101369297155
355,302.5498489425982,784.9033232628399,-0.17702061715415798
356,302.99107142857144,784.9017857142857,-0.18605824767409698
357,303.5864022662889,785.3767705382436,-0.19101782528092548
358,303.9327731092437,785.2549019607843,-0.20068860378729766
359,304.3891891891892,785.1675675675676,-0.20895924676737695
360,305.2806539509537,786.850136239782,-0.2236365638999931
361,305.6016042780749,787.2219251336899,-0.22460361169599768
362,306.1171875,787.4479166666666,-0.23980503237772122
363,306.6641791044776,788.2512437810946,-0.24533876231582932
364,307.0565552699229,788.6143958868895,-0.2704217549666071
365,307.8682170542636,789.811369509044,-0.2844498183155858
366,308.2292191435768,789.7178841309824,-0.2902005981129647
367,308.904282115869,791.2619647355164,-0.31932897493165774
368,309.06527415143603,791.2767624020888,-0.3294267783681201
369,309.88250652741516,792.6527415143603,-0.3467798007391441
370,310.2627345844504,793.0482573726541,-0.36619744547397654
371,310.7168831168831,793.5168831168832,-0.39780836073871534
372,311.38235294117646,794.9224598930481,-0.4153792778672258
373,311.72727272727275,795.716577540107,-0.4465207234321332
374,312.2975871313673,796.7506702412869,-0.46461404508673754
375,312.7983870967742,797.7741935483871,-0.5113930730014604
376,313.24793388429754,798.641873278237,-0.5100842590894443
377,313.8707865168539,799.9943820224719,-0.596123836376914
378,314.3805555555556,801.0166666666667,-0.6422603413930807
379,314.74074074074076,801.991452991453,-0.7118364750878607
380,315.37640449438203,803.2837078651685,-0.6936380176392338
381,315.71220930232556,804.5872093023256,0.6343316069739344
382,316.45454545454544,805.6818181818182,0.6415852319422413
383,316.8498583569405,807.2606232294618,0.6876091036474465
384,317.449591280654,808.9182561307902,0.589105018191355
385,318.10614525139664,810.0027932960894,0.6140727152147378
386,318.7707182320442,811.0966850828729,0.552238122895976
387,319.39617486338796,812.2950819672132,0.5164677485384896
388,319.77567567567564,813.7810810810811,0.47569286150375395
389,320.4465240641711,814.9652406417113,0.4401333825355075
390,320.88235294117646,816.2219251336899,0.427626060383138
391,321.57824933687004,817.419098143236,0.39425244555419203
392,322.0473684210526,818.7342105263158,0.37120467980616395
393,322.8316326530612,819.3775510204082,0.36068647302351653
394,323.4464751958225,820.644908616188,0.34006979198865017
395,324.031007751938,821.733850129199,0.3139397209707749
396,324.6829896907217,822.5360824742268,0.29244167828606993
397,325.49086161879893,822.9242819843342,0.2842476966226113
398,325.85224274406335,824.424802110818,0.2657326041359009
