FrameNo,Row,Column,Angle
106,22.915422885572138,765.0348258706467,-0.2358768437948043
107,23.286063569682153,763.0537897310513,-0.24482822256121942
108,24.20246913580247,763.3012345679012,-0.25994825962401846
109,24.98780487804878,762.9414634146342,-0.2757338254961513
110,25.864406779661017,763.2566585956416,-0.2848543689217384
111,26.794392523364486,763.4135514018692,-0.2958349589001451
112,27.650943396226417,763.6037735849056,-0.3105045405216902
113,28.406032482598608,763.3433874709976,-0.3265892140507782
114,29.270089285714285,763.2767857142857,-0.32892893437973925
115,30.138009049773757,763.631221719457,-0.3489481862454913
116,31.042600896860986,763.7242152466367,-0.3709320545479209
117,31.823788546255507,763.6387665198238,-0.3864133010831108
118,32.86725663716814,764.2367256637168,-0.40535307113510294
119,33.85022026431718,764.8039647577093,-0.4168994742655347
120,34.54761904761905,764.6385281385282,-0.43362399837909893
121,35.29263157894737,764.7663157894737,-0.4547926386692313
122,36.20043103448276,764.7780172413793,-0.4699506509762936
123,37.12579957356077,765.3027718550106,-0.4933463888673795
124,37.853813559322035,765.4533898305085,-0.5140114984932033
125,38.74579831932773,765.8508403361344,-0.5379483547739619
126,39.8,766.2255319148936,-0.5640981814615009
127,40.60504201680672,766.4012605042017,-0.5916788187963776
128,41.45202558635395,766.8379530916844,-0.6049588923852863
129,42.36268343815514,767.1802935010483,-0.6424840040830356
130,43.40292275574113,767.8684759916492,-0.6663970728584194
131,44.13097713097713,768.0457380457381,-0.7228321177529562
132,44.92099792099792,768.4594594594595,-0.7580062651614138
133,45.87551867219917,769.0103734439834,-0.7880051743356168
134,46.88981288981289,769.6548856548857,-0.8351724701254634
135,47.29511677282378,769.723991507431,-0.8839079500957234
136,48.26271186440678,770.4258474576271,-0.9230442598727923
137,49.23265306122449,771.065306122449,-1.0257125018970008
138,50.25360824742268,771.5422680412371,-1.0982988956642437
139,50.91975308641975,772.1028806584362,-1.2112348322341282
140,51.802904564315355,772.8879668049792,-1.298381299968805
141,52.784,773.532,-1.4319347597748397
142,53.95171026156942,774.2474849094567,1.5290170754445955
143,54.58882235528942,775.127744510978,1.3358734031810573
144,55.42156862745098,775.864705882353,1.2216201348636022
145,56.36758893280632,776.6185770750988,1.0528140612939085
146,57.57114624505929,777.3675889328064,0.9228295094903161
147,58.340304182509506,778.1596958174905,0.8321015381354411
148,59.341509433962266,778.9603773584905,0.787104694844987
149,60.33147113594041,779.9422718808194,0.709539352312656
150,61.685981308411215,780.5476635514019,0.6781600168543934
151,62.47889908256881,781.1834862385322,0.6325420945315982
152,63.51371115173674,782.0749542961609,0.5763817644167574
153,64.41048824593129,782.9186256781194,0.5420491846439138
154,65.46071428571429,783.7928571428572,0.5110947832105608
155,66.51515151515152,784.336898395722,0.48494691915444577
156,67.7221269296741,784.728987993139,0.43965382817370413
157,68.58070175438597,785.9035087719299,0.41956327764312906
158,69.86062717770035,786.322299651568,0.405868209989113
159,70.65789473684211,787.2771929824562,0.3819163245864356
160,72.0,787.6135181975736,0.36148818283073864
161,72.88380281690141,788.3274647887324,0.3425349255905813
162,74.14438502673796,788.9197860962566,0.3237093757396656
163,75.20598591549296,789.4137323943662,0.3072470730354314
164,76.25614035087719,790.1087719298246,0.29332730156402226
165,77.295025728988,790.6500857632933,0.28411483359108125
166,78.40316901408451,790.8890845070423,0.25330454990522955
167,79.50265486725664,791.8814159292035,0.24231728304506067
168,80.57913043478261,792.1165217391305,0.23468958205461835
169,81.79032258064517,792.7150537634409,0.21894187952588
170,82.79606440071557,792.6350626118068,0.20815626128386408
171,84.04642857142858,792.8125,0.20213769792779337
172,85.14391143911439,793.2619926199262,0.19436044756445858
173,86.09403254972875,793.5370705244123,0.19176420594979365
174,87.68258426966293,793.5252808988764,0.17785482015930543
175,88.45697896749522,793.9330783938815,0.15421618877931487
176,89.65825242718446,793.6407766990292,0.15196258716312
177,90.72781065088758,793.7771203155819,0.14257451702672982
178,91.82352941176471,794.2332657200811,0.13060953569963163
179,92.97971602434077,794.1622718052738,0.12598106063719314
180,94.11157894736841,793.802105263158,0.11307674740545794
181,95.28389830508475,793.9703389830509,0.1139152798437696
182,96.4818763326226,793.3901918976546,0.10837267669886948
183,97.38914027149322,793.8529411764706,0.09648005678418102
184,98.49406175771972,793.4750593824228,0.09002578483675241
185,99.5,793.5024630541872,0.07524429248637243
186,100.70854271356784,793.3693467336683,0.07092246157502523
187,101.7051282051282,792.8666666666667,0.07336756125743543
188,102.56593406593407,792.967032967033,0.062282864774712184
189,103.77837837837838,792.4783783783784,0.05046070051112859
190,104.70487106017193,791.9340974212034,0.05265862482315266
191,106.02865329512893,790.7621776504297,0.0411846519078972
192,106.98765432098766,790.9814814814815,0.03876153913945172
193,107.97029702970298,790.6270627062706,0.03252892057294382
194,108.9261744966443,790.9664429530201,0.02380199409416553
195,110.12142857142857,789.1107142857143,0.024922676134792543
196,111.14828897338403,789.5095057034221,0.028215870767605324
197,112.1178861788618,789.1829268292684,0.02635978280103222
198,113.1875,788.0583333333334,0.024226526357266125
199,114.05333333333333,787.4577777777778,0.0066064441685961175
200,114.95169082125604,787.096618357488,-0.01252169426812378
201,115.89285714285714,787.1275510204082,-0.005451605852810566
202,116.99459459459459,786.0216216216216,-0.006934367478318703
203,117.83597883597884,785.3862433862435,0.006658082697353664
204,118.80606060606061,785.2242424242424,0.012622256669861224
205,119.73333333333333,784.4133333333333,-0.00794102888293616
206,120.78571428571429,783.7987012987013,0.010239860187999736
207,121.64625850340136,783.0340136054422,0.004349656397245188
208,122.58064516129032,780.4301075268818,-0.10832652137281025
209,123.43243243243244,781.1711711711712,0.025003878075880753
210,124.40566037735849,779.9905660377358,0.09634502803653645
211,125.22689075630252,779.5210084033613,0.13820292245631777
212,126.10344827586206,778.948275862069,0.11643584914887467
213,126.77319587628865,779.0309278350516,0.06356834227277235
214,127.6470588235294,778.6764705882352,0.06471453771630103
215,128.66417910447763,778.1567164179105,0.04224305913438632
216,129.18791946308727,777.3691275167785,0.046366105837161116
217,130.57894736842104,776.8538011695906,0.030450110354392563
218,131.13836477987422,776.8301886792453,0.00912873295156194
219,131.8415300546448,775.655737704918,0.0023548902808073276
220,132.76436781609195,775.8218390804598,-0.022245994547200484
221,133.70056497175142,775.5254237288136,-0.016793690137462326
222,134.47641509433964,774.2358490566038,-0.027929421219638508
223,135.11627906976744,774.5488372093023,-0.043344284280543426
224,136.1361502347418,773.9014084507043,-0.03993075024640873
225,136.9502262443439,773.5927601809955,-0.058354258750621314
226,137.61181434599155,773.7763713080169,-0.06899391416201799
227,138.581589958159,773.2803347280335,-0.07912157573418842
228,139.17578125,772.91796875,-0.08322208365827989
229,140.0968992248062,772.7596899224807,-0.08679905343666262
230,140.80223880597015,771.7089552238806,-0.09348561441873897
231,141.61071428571427,771.6892857142857,-0.1034205383278751
232,142.39194139194137,771.7692307692307,-0.11665928708381743
233,143.11824324324323,770.9155405405405,-0.12308208391703569
234,143.83112582781456,770.5496688741722,-0.1342299987018835
235,144.74233128834356,770.9785276073619,-0.13403881468456927
236,145.375,770.75,-0.15294324172469503
237,146.0695652173913,770.3826086956522,-0.16316790227797595
238,146.88285714285715,770.5942857142857,-0.1637090672509918
239,147.64488636363637,770.9971590909091,-0.17602052577609476
240,148.3707865168539,770.7134831460675,-0.18229098303644445
241,149.1900826446281,770.3939393939394,-0.18993539042636645
242,149.9608938547486,770.1983240223464,-0.19435434675597676
243,150.7146814404432,770.1274238227147,-0.20223789249982832
244,151.66321243523316,770.5,-0.21408992638406388
245,152.18346253229976,770.3720930232558,-0.21911599475179352
246,152.99214659685862,770.303664921466,-0.22983540875077385
247,153.7801047120419,770.586387434555,-0.24468964598725682
248,154.41071428571428,770.3010204081633,-0.24219010716367792
249,155.21969696969697,770.7070707070707,-0.2655024692646237
250,156.12406947890818,771.0,-0.27963771861116243
251,156.69704433497537,770.9852216748768,-0.29030217653305235
252,157.59268292682927,771.3780487804878,-0.30394512141943014
253,158.27872860635696,771.5501222493888,-0.322272633824287
254,158.9855072463768,771.8309178743962,-0.3255639263925951
255,159.88177339901478,772.115763546798,-0.3345936596925427
256,160.51196172248802,772.3062200956938,-0.354705444300449
257,161.373786407767,772.6140776699029,-0.37009509500012383
258,161.8846153846154,772.4182692307693,-0.38210698897710565
259,162.90864197530863,773.0172839506173,-0.4077520053465471
260,163.55180722891566,773.1421686746988,-0.4264458017506032
261,164.44794188861985,773.7675544794189,-0.4519682549308834
262,165.05741626794259,773.8971291866029,-0.4648078817951052
263,165.89756097560974,774.4634146341464,-0.4816283039577098
264,166.73444976076556,774.8612440191388,-0.5085098472417747
265,167.45588235294116,775.2769607843137,-0.5419201457298186
266,168.10784313725492,775.5122549019608,-0.5765012817594932
267,169.00735294117646,776.1127450980392,-0.6074511481559901
268,169.6904176904177,776.6904176904177,-0.6150579392125833
269,170.7530864197531,777.0765432098765,-0.6790461918497943
270,171.27027027027026,777.6044226044226,-0.7318045522137016
271,172.01970443349754,778.1108374384237,-0.7709558648858255
272,172.71356783919597,778.748743718593,-0.7883017800278248
273,173.63144963144964,779.3513513513514,-0.8791727197571165
274,174.2994923857868,779.8477157360406,-0.9890437751398597
275,175.08860759493672,780.6430379746836,-1.1134669703630946
276,175.68734491315138,781.4069478908189,1.5294380717535903
277,176.54926108374383,782.4310344827586,1.0310746126004218
278,177.37772397094432,783.0774818401937,0.838384757357439
279,178.2,784.0883720930233,0.8103319626830056
280,178.94117647058823,784.8995098039215,0.6290794194723539
281,180.0,785.5,0.6597395402152487
282,180.61893203883494,786.4587378640776,0.5856355288636143
283,181.45346062052505,787.3174224343676,0.5496733903268869
284,182.58309037900875,788.0408163265306,0.5362635149416258
285,183.41067285382832,788.7424593967518,0.47992248669857196
286,184.05938242280286,789.8812351543943,0.44573544774584284
287,185.13720930232557,790.6093023255814,0.4371853498678099
288,185.9600938967136,791.3497652582159,0.39942544139642605
289,186.91334894613584,792.1873536299765,0.39009105497197727
290,187.73684210526318,793.0663615560641,0.36987179385386654
291,188.5299539170507,793.8801843317972,0.3470847306436152
292,189.5456674473068,794.4496487119438,0.32494250486783705
293,196.61176470588236,781.0588235294117,0.23903567248777513
294,191.4338747099768,795.6171693735499,0.29648871532220034
295,192.39858490566036,796.497641509434,0.2768829032027435
296,193.28266033254158,797.0166270783848,0.26225026249570454
297,194.34751773049646,797.418439716312,0.2501134816837359
298,195.25116279069766,798.1046511627907,0.24700471927676473
299,195.9829268292683,799.1682926829268,0.22894537754466018
300,197.11058823529413,799.1152941176471,0.2204321560504292
301,197.82338308457713,799.726368159204,0.21261907804643151
302,198.9268292682927,800.0121951219512,0.20639888657185917
303,199.9230769230769,800.2258064516129,0.19766375570906228
304,200.85204081632654,800.4489795918367,0.1855209855149323
305,201.63970588235293,800.7745098039215,0.18857417954900996
306,202.60731707317075,800.8756097560976,0.1798305908423495
307,208.03846153846155,778.8846153846154,0.11493703587398325
308,203.57512953367876,806.6683937823834,0.16619219554056716
309,205.6063829787234,801.1090425531914,0.15879505819967055
310,206.42239185750634,801.3460559796438,0.15698676278560866
311,207.3562005277045,800.8337730870712,0.14554508464588226
312,208.2622950819672,801.4207650273224,0.14481877937265078
313,209.27792915531336,801.1307901907358,0.13757072886237934
314,210.1108108108108,800.745945945946,0.13223122935326345
315,210.96011396011397,801.2364672364672,0.1327231119579704
316,212.0742857142857,801.2542857142857,0.12112645869374707
317,212.94242424242424,800.3939393939394,0.12094448297494294
318,213.7079646017699,800.7050147492625,0.12597900567988388
319,214.656050955414,800.6082802547771,0.10928967806105848
320,215.50809061488673,800.2718446601941,0.12743458856363651
321,216.51712328767124,798.9143835616438,0.12597626323407013
322,217.48958333333331,798.25,0.104032539983098
323,218.08391608391608,799.0804195804196,0.12140216144464562
324,219.05204460966542,798.5092936802974,0.11028380075537894
325,220.04182509505705,797.9239543726236,0.11988209996012039
326,220.77380952380952,797.4246031746031,0.11238036799494286
327,221.57758620689657,796.926724137931,0.1045833198271286
328,222.53846153846155,796.5746606334842,0.10894256914361693
329,223.62272727272727,795.3772727272727,0.12340980260158238
330,224.18781725888323,795.4923857868021,0.10254243447389558
331,224.9736842105263,794.8105263157895,0.11104823543749712
332,225.8780487804878,794.310975609756,0.11809300249910885
333,226.76363636363635,793.9333333333334,0.13920635036114906
334,227.50335570469798,793.8456375838927,0.15458211721378912
335,228.35,793.1142857142858,0.14535702584298482
336,229.30327868852459,791.6065573770492,0.1206579810643607
337,230.06422018348624,791.3302752293578,0.16065472698454786
338,231.7733333333333,787.6533333333333,0.025887993130113026
339,231.82291666666669,789.96875,0.07529030094728009
340,232.3917525773196,790.4329896907217,0.14884814173520158
341,233.32608695652175,790.7934782608695,0.16006795702376375
342,234.12380952380954,790.7142857142857,0.1920920210745045
343,234.96666666666667,789.7833333333333,0.15146984244045053
344,235.55263157894737,789.6929824561404,0.09747085714434413
345,236.25190839694656,788.0763358778626,0.1165959721668264
346,237.23880597014926,787.2537313432836,0.0405892689171151
347,238.04895104895104,786.7342657342657,0.016105874686077822
348,238.75155279503105,786.5527950310559,0.031670560595053895
349,239.47435897435898,785.6025641025641,-0.009612323610544002
350,240.22543352601156,784.0404624277456,0.0019118510598920102
351,240.92134831460675,784.438202247191,-0.02676037125965276
352,241.6864864864865,783.7135135135135,-0.047398054310992574
353,242.48979591836735,783.6071428571429,-0.052014679512273045
354,243.13744075829385,782.6018957345972,-0.04594464237525605
355,244.05238095238096,781.9095238095238,-0.050410423514120735
356,244.89252336448598,782.1635514018692,-0.06830033341702485
357,245.5324074074074,782.1805555555555,-0.06233550858262202
358,246.28125,781.0714285714286,-0.0673627221948123
359,246.94190871369295,780.3692946058092,-0.06772192685802136
360,247.57261410788382,780.1452282157676,-0.07635463596693023
361,248.57383966244726,779.9746835443038,-0.07868042346501779
362,249.33864541832668,780.1673306772908,-0.0858302489660929
363,249.95256916996047,779.6086956521739,-0.09365036708348845
364,250.834008097166,779.3157894736842,-0.09825811375994677
365,251.46564885496184,778.6106870229007,-0.09546267092355021
366,252.25206611570246,778.9132231404959,-0.09279302232744636
367,253.08270676691728,778.3646616541354,-0.0905764304270958
368,253.73106060606062,778.625,-0.10800877183130929
369,254.55719557195573,779.0627306273063,-0.10430343952354237
370,255.15068493150685,778.7157534246576,-0.11587326620765327
371,256.0459363957597,778.9681978798586,-0.12037422808576281
372,256.64388489208636,778.9208633093525,-0.12157430367321426
373,257.31271477663233,777.786941580756,-0.12199933881924331
374,258.1476923076923,778.0861538461538,-0.14110506744086163
375,258.76397515527947,778.6645962732919,-0.1351867358502141
376,259.64506172839504,778.9259259259259,-0.1436708516909719
377,260.2453416149068,778.388198757764,-0.14899011204145154
378,260.87915407854985,778.0604229607251,-0.15454773372170053
379,261.56508875739644,778.0118343195267,-0.15928383664727297
380,262.25852272727275,778.2698863636364,-0.17105928630823317
381,262.994459833795,778.6232686980609,-0.17835325053024365
382,263.8105849582173,778.8885793871866,-0.17859749653629708
383,264.45454545454544,778.900826446281,-0.19335013110762886
384,265.1401098901099,779.239010989011,-0.1994862302296644
385,265.8712328767123,779.4794520547945,-0.21690891864850506
386,266.47837837837835,779.1783783783784,-0.22224075764346926
387,267.29490616621985,779.5067024128687,-0.23108352647856986
388,267.781914893617,779.7047872340426,-0.24169440942519768
389,268.74666666666667,780.1973333333333,-0.2615926885919402
390,269.23359580052494,780.1706036745406,-0.2723780915277542
391,270.05434782608694,780.3994565217391,-0.27692935430738747
392,270.77008310249306,780.972299168975,-0.28569968073515156
393,271.3977900552486,781.1657458563536,-0.30361031511548753
394,272.2166666666667,781.4666666666667,-0.3184539115655759
395,272.7920227920228,781.8461538461538,-0.3300064645227523
396,273.6693333333333,782.2853333333334,-0.34822387120265874
397,274.11590296495956,782.3692722371968,-0.41101818187259676
398,275.031884057971,783.0376811594203,-0.3724433592237519
399,275.61383285302594,783.3976945244957,-0.42144695078438604
400,276.066265060241,783.460843373494,-0.43054734476151174
401,276.966966966967,784.1951951951952,-0.4426558415772031
402,277.5982142857143,784.6517857142857,-0.45689130936242545
403,278.1942028985507,785.5246376811594,-0.46958637754527055
404,278.92879256965944,785.6006191950464,-0.4804629679680044
405,279.49847094801225,786.3333333333334,-0.4805162042843831
406,280.428125,786.825,-0.43074756572370654
407,280.71076923076924,787.2892307692308,-0.20185012189384482
408,281.4808917197452,788.4044585987261,0.2153911822887064
409,282.16770186335407,789.3105590062112,0.4026295974590776
410,282.8184615384615,789.9076923076923,0.46923276588813284
411,283.4908536585366,790.6432926829268,0.4972574124285757
412,284.21183800623055,791.8317757009346,0.5053821863749233
413,285.14156626506025,792.4246987951807,0.4987994545782154
414,285.65045592705167,793.4528875379939,0.4728780055065952
415,286.3018292682927,794.2439024390244,0.4532115859260159
416,287.248502994012,794.9880239520958,0.44586018428781166
417,287.92857142857144,795.7410714285714,0.40194414275842844
418,288.47289156626505,796.6295180722891,0.3993005902698026
419,289.30205278592376,797.2785923753665,0.36709825264482787
420,290.0922509225092,798.1476014760148,0.37689145585773
421,290.6180758017493,799.3469387755102,0.339178640028894
422,291.2774566473988,799.9595375722544,0.3362437488307351
423,292.2622478386167,800.6916426512969,0.3139900760115055
424,293.0089552238806,800.9761194029851,0.304788351114685
425,293.7348703170029,801.8242074927954,0.2971834106316892
426,294.50704225352115,802.5070422535211,0.28725642233716625
427,295.36647727272725,802.8409090909091,0.27637465090214686
428,296.1638418079096,803.2994350282486,0.26793677917029224
429,296.92917847025495,803.9235127478753,0.25604198408432904
430,297.6566757493188,804.858310626703,0.2442388827300679
431,298.4073033707865,805.2893258426966,0.24388870537232663
432,299.27323943661975,805.4788732394367,0.23818035916682245
433,300.24931506849316,805.331506849315,0.22731183829085314
