FrameNo,Row,Column,Angle
51,23.108490566037737,732.6556603773585,-0.7964310063239346
52,24.939473684210526,733.4605263157895,-0.7921631159738721
53,25.5609756097561,733.0216802168022,-0.8485363741520938
54,27.281725888324875,733.6192893401015,-0.9028502223110606
55,28.479591836734695,733.5892857142857,-0.9453305052474703
56,29.861313868613138,733.9464720194647,-1.007318238371164
57,31.69833729216152,734.9287410926365,-0.9675336373309577
58,32.399527186761226,734.7304964539007,-1.0802766665238834
59,33.910377358490564,735.0731132075472,-1.1456517533780413
60,35.65105386416862,735.4847775175645,-1.1562493023861653
61,36.90654205607477,735.9859813084112,-1.3064707341566455
62,38.18181818181818,736.5627705627705,-1.3794785804735603
63,39.84415584415584,737.3008658008658,-1.4663924997176259
64,41.23221757322176,737.6297071129707,1.5411804270873897
65,42.56903765690377,738.326359832636,1.3663316818963487
66,44.44214876033058,738.646694214876,1.2818103044559819
67,45.92168674698795,739.2650602409639,1.0925071110722102
68,47.04158790170133,739.7882797731569,1.00950940257403
69,48.50754716981132,740.4981132075471,0.8278918348912209
70,49.90207156308851,741.1337099811676,0.7208820538997057
71,51.47329650092081,741.6040515653775,0.6838666093131313
72,52.600706713780916,742.756183745583,0.6283254892659644
73,54.324561403508774,743.0035087719298,0.5881009654638081
74,56.15897435897436,743.6752136752136,0.5258425768898509
75,57.38316151202749,744.3762886597938,0.4877225261553154
76,58.99499165275459,744.559265442404,0.46690557858079945
77,60.37061769616027,745.1569282136895,0.4731348187719228
78,61.89802631578947,746.0082236842105,0.4112069162008211
79,63.750809061488674,746.2912621359224,0.41738080046310705
80,65.05048859934854,746.885993485342,0.39272049723844615
81,66.27633587786259,747.7099236641221,0.3675060991728376
82,67.85826771653544,748.0,0.35024970020732066
83,69.32615384615384,748.4338461538462,0.33843550751013296
84,71.07389937106919,748.8066037735849,0.32145834186560607
85,72.3297709923664,749.1770992366412,0.32027495630061137
86,73.64660493827161,750.0432098765432,0.29972606297106746
87,75.47981366459628,750.0046583850932,0.2874954134052699
88,76.88091603053435,750.5404580152672,0.27954754146011584
89,78.36080870917574,750.791601866252,0.26053986167060295
90,80.0659509202454,750.760736196319,0.25992656998765573
91,81.20962732919254,751.2826086956521,0.26444164072156723
92,82.80670926517571,751.7571884984026,0.23952358100696425
93,84.13559322033899,752.0,0.24873146566598295
94,85.63622047244094,752.5889763779528,0.23589486207831623
95,87.3305785123967,752.0115702479338,0.23610284427454487
96,88.54063018242122,752.8905472636816,0.22095501479204036
97,90.31683168316832,752.473597359736,0.21572531506274184
98,91.83447098976109,752.740614334471,0.21283046082550094
99,93.32933104631218,752.7358490566038,0.210375906989185
100,94.70017636684304,753.2486772486773,0.213509622395909
101,96.11072664359861,752.621107266436,0.2056889111547691
102,97.82608695652173,752.0615942028985,0.1946378304716526
103,99.28288288288289,752.7081081081081,0.21013959627059858
104,100.66243194192377,752.6098003629764,0.1989149720481585
105,102.01333333333334,751.92,0.1889748013564798
106,103.517578125,752.072265625,0.18240087440455252
107,104.74609375,752.310546875,0.17704238468720795
108,106.5383064516129,751.8125,0.1865710824976543
109,107.66230936819171,751.8104575163399,0.18692202850135836
110,109.11622807017544,751.3092105263158,0.1868594524698994
111,110.62259615384616,751.4375,0.18687535399240413
112,112.07021791767555,750.6489104116223,0.18441320080819376
113,113.36111111111111,750.2676767676768,0.18634814024486038
114,114.87080103359173,749.8294573643411,0.20540533816122367
115,116.17231638418079,750.132768361582,0.20598049111420907
116,117.66071428571429,749.3690476190476,0.2116373649620217
117,118.928125,748.8375,0.21278684077563875
118,120.68078175895765,747.4332247557003,0.2220394992812891
119,121.91007194244604,747.6726618705036,0.23075788071772407
120,123.32173913043478,746.895652173913,0.23282394043516888
121,124.94047619047619,745.218253968254,0.23895465196237964
122,125.92277992277992,745.4092664092664,0.25557436572216713
123,127.4627659574468,744.813829787234,0.26563258794468925
124,128.81142857142856,744.4685714285714,0.27208620341533896
125,130.7173913043478,742.5942028985507,0.27557765249005467
126,132.06993006993008,742.0979020979021,0.2920179751193995
127,134.05343511450383,739.8473282442748,0.26358320781706274
128,134.7077922077922,741.3636363636364,0.31587343424182235
129,135.8804347826087,741.3967391304348,0.34685877970527035
130,136.70689655172413,742.0344827586207,0.3728928556504633
131,137.67326732673268,742.0049504950495,0.39012149255338613
132,139.1367924528302,741.1981132075472,0.4232756859748815
133,140.26633165829145,740.8542713567839,0.42683002747569815
134,141.42660550458714,740.6467889908257,0.38821198554067704
135,142.37556561085972,740.3303167420814,0.3503741114805778
136,143.88789237668163,739.3049327354261,0.3045699261059034
137,144.69795918367348,738.8081632653061,0.2664074681106767
138,146.19850187265916,737.7940074906367,0.13385499347690608
139,147.6968503937008,737.2559055118111,-0.08602935430163572
140,148.47330960854094,736.3274021352313,-0.09189101771183482
141,150.08695652173913,735.5384615384615,-0.11094636468732545
142,150.7395498392283,734.5691318327974,-0.18232870903541776
143,152.27607361963192,734.1288343558282,-0.19290738512868916
144,153.3926380368098,732.9938650306749,-0.23508986009460706
145,155.04011461318052,732.7134670487106,-0.21949205123463136
146,155.94765840220384,731.0358126721763,-0.2310449918429698
147,157.05945945945945,731.6081081081081,-0.24617729226216412
148,158.17105263157896,730.4868421052631,-0.26132051307450427
149,159.43121693121694,729.2645502645503,-0.2503427595086754
150,160.8274111675127,729.1218274111675,-0.24750925922795866
151,161.8604118993135,728.2196796338673,-0.24807609293468177
152,163.21077283372364,727.5035128805621,-0.2581852759944985
153,164.54394299287412,726.541567695962,-0.2159403854945477
154,165.46770601336303,726.6926503340758,-0.2538776468358643
155,166.80697674418604,725.2325581395348,-0.22308840723122064
156,167.96652719665272,725.3974895397489,-0.24155777990386967
157,169.00205761316874,725.0205761316872,-0.2522039116657071
158,170.47661469933183,724.1113585746102,-0.2465538564698481
159,171.4248366013072,723.4270152505446,-0.2277185753024928
160,172.8148148148148,723.6100217864923,-0.24141920880944814
161,173.7,722.6911111111111,-0.24947810552847055
162,175.0762711864407,722.603813559322,-0.24846979068618116
163,176.47345132743362,722.7721238938053,-0.2370786918807248
164,177.3778801843318,721.7188940092166,-0.2434031739399193
165,178.6235827664399,721.0113378684807,-0.26109583706413525
166,179.72009029345372,721.1241534988714,-0.24124835155618615
167,180.60135135135135,719.822072072072,-0.26419714760955987
168,181.9375,720.3310185185185,-0.25549329216101935
169,183.37100737100735,720.4643734643735,-0.26371619604225943
170,184.464824120603,720.6884422110553,-0.26716631692370363
171,185.6940298507463,720.1666666666666,-0.2732906349792205
172,187.2525,721.515,-0.2804348239035672
173,188.0379746835443,720.2278481012659,-0.2735310494939439
174,189.29533678756476,720.4300518134716,-0.28989411736584586
175,190.45283018867923,720.3099730458221,-0.2895654956765898
176,191.63247863247864,720.934472934473,-0.28281300891322225
177,192.81443298969072,720.7457044673539,-0.2955054129631596
178,194.2206896551724,721.6137931034483,-0.2969681796446031
179,195.50889679715303,722.2348754448399,-0.3030543171041702
180,197.00632911392404,723.0189873417721,-0.317604186415031
181,198.0859375,723.09765625,-0.3114057266840012
182,199.28395061728395,723.7283950617284,-0.32065176676375073
183,200.8421052631579,724.591093117409,-0.33814650861557105
184,202.0411522633745,725.0288065843622,-0.34776972268816525
185,203.34632034632034,725.5064935064935,-0.36138562362703
186,204.68018018018017,726.6666666666666,-0.3548235868785075
187,206.2972972972973,727.3873873873874,-0.3787994430750552
188,207.30666666666667,727.3066666666666,-0.3929820380334258
189,208.36501901140684,727.3346007604563,-0.41503655380285975
190,209.35172413793103,727.6793103448276,-0.4231308207456497
191,210.42322097378278,727.7153558052435,-0.4616652869791717
192,211.8846153846154,728.2552447552448,-0.47288992428376525
193,212.55400696864112,727.780487804878,-0.49025967071558596
194,213.39350180505414,727.4693140794224,-0.47919882389945595
195,214.55871886120997,728.5338078291815,-0.5407071269305351
196,215.68055555555554,728.6180555555555,-0.5972277245560529
197,217.1046931407942,729.1949458483755,-0.5871889149746691
198,217.83673469387753,729.3571428571429,-0.6290170869270211
199,218.68474576271188,729.7762711864407,-0.6261983114097822
200,220.11824324324323,730.1351351351351,-0.6870913470975
201,221.55238095238096,731.1015873015873,-0.6680326423131785
202,222.36807817589576,731.7100977198697,-0.6197615976548541
203,223.31428571428572,732.3460317460317,-0.44133341840122337
204,224.64923076923077,733.3169230769231,0.05728836198857635
205,225.64306784660766,733.8407079646017,0.17965862461469342
206,226.72649572649573,734.3276353276353,0.24970456627682966
207,227.8787061994609,735.7035040431267,0.2956948764355809
208,229.3237597911227,736.668407310705,0.28854882500895457
209,229.8253164556962,737.5113924050632,0.33618325943372807
210,231.36895674300254,737.7786259541984,0.29426908622356707
211,232.62278481012657,738.8278481012658,0.30514773313354626
212,233.71634615384616,739.4399038461538,0.2747148040807752
213,234.90997566909977,740.0,0.29774836969012025
214,236.08482142857144,740.5223214285714,0.25437121172311133
215,237.1731207289294,741.373576309795,0.2758991863504641
216,238.15401785714286,742.1227678571429,0.25506418749395454
217,239.36865342163355,742.5938189845475,0.25658230082407524
218,240.82314410480348,743.5218340611353,0.24139148694656815
219,241.72245762711864,744.4004237288136,0.22075275365381364
220,242.92121212121214,744.2828282828283,0.21572357180634388
221,244.0043956043956,745.3978021978022,0.20340446086108507
222,245.14545454545453,745.5979797979799,0.20519346793948046
223,246.42061855670102,745.5381443298969,0.21825974291631917
224,247.68410041841003,746.4748953974895,0.19054120003814837
225,248.67634854771785,746.7199170124481,0.19266457196510775
226,249.5197628458498,747.1383399209486,0.17409528181230835
227,250.91295116772824,747.968152866242,0.18947791508344813
228,252.13319238900635,748.323467230444,0.1862307287043232
229,253.13675213675214,748.3846153846154,0.1793376821434471
230,254.09110169491527,749.271186440678,0.1951246458108562
231,255.46136865342163,748.9028697571744,0.1541727138544984
232,256.4580498866213,749.2902494331066,0.16482128101790972
233,257.58021978021975,749.1362637362638,0.16146313643411903
234,258.66105263157897,749.802105263158,0.16548345277113735
235,259.6440281030445,750.1100702576113,0.17530002220447405
236,261.15625,748.7307692307693,0.17472155199898515
237,262.04918032786884,749.6206088992974,0.18406611363059389
238,263.065,749.5225,0.17792434590137146
239,263.96190476190475,749.8785714285714,0.19612653040103276
240,265.75710594315245,747.2868217054264,0.1894987862363928
241,266.6295081967213,748.1770491803279,0.19122014223000008
242,267.98333333333335,746.175,0.19413565123104806
243,268.919014084507,746.9823943661972,0.19092887996813868
244,269.7716049382716,747.0987654320987,0.20349818126005056
245,271.37984496124034,744.9147286821706,0.20159293908477266
246,272.3453815261044,745.2369477911647,0.20464210288294965
247,273.58898305084745,744.1652542372881,0.2082423803155192
248,274.710407239819,743.6380090497737,0.2177066599126258
249,275.8779342723005,743.075117370892,0.22286545418915643
250,277.1756097560976,741.3219512195122,0.2330885398029126
251,278.0707547169811,742.0518867924528,0.25048154387607746
252,279.5057471264368,739.9827586206897,0.2425530085374116
253,280.36734693877554,740.4183673469388,0.2789682067420144
254,281.683615819209,739.5254237288136,0.2800674770895625
255,282.74468085106383,739.0212765957447,0.29401703553064124
256,283.6630434782609,739.2119565217391,0.30450371064264836
257,284.3862433862434,739.7037037037037,0.333540070981244
258,285.298755186722,739.6265560165975,0.3721376738501094
259,286.19069767441863,739.293023255814,0.38510669362882904
260,287.295652173913,738.1826086956522,0.37563160420081565
261,288.3259911894273,738.2511013215859,0.4215524555224117
262,289.05857740585776,737.8744769874477,0.43564630334658255
263,290.3312883435583,737.398773006135,0.3988462386625772
264,291.09142857142854,736.8971428571429,0.3848928529944675
265,292.02793296089385,736.268156424581,0.2494972905343929
266,293.15028901734104,735.514450867052,0.00021431631777927098
267,293.71875,734.5833333333334,-0.14301080758612209
268,295.005076142132,734.0812182741117,-0.25643980465796
269,295.5229681978799,732.9752650176679,-0.19384382122593766
270,296.301775147929,732.008875739645,-0.29108924615550263
271,297.8178913738019,731.8626198083067,-0.29610008996511206
272,298.5939393939394,730.4181818181818,-0.3103269677393626
273,299.9520958083832,730.2574850299401,-0.3141608249532811
274,301.0612813370474,729.08356545961,-0.2913812147420391
275,301.4701086956522,728.3315217391305,-0.28926995037612474
276,302.4340659340659,727.0879120879121,-0.2577623798234067
277,303.6852367688022,727.3871866295265,-0.26329423957094933
278,304.5333333333333,726.28,-0.2564801654878734
279,305.3725961538462,725.1658653846154,-0.24319872337418438
280,306.22361809045225,724.3668341708543,-0.22232729420111425
281,307.3554502369668,723.4810426540284,-0.24167350951618752
282,308.49343832021,723.6351706036745,-0.24259191534183533
283,309.59746835443036,723.0151898734177,-0.2429368320425905
284,310.32211538461536,721.9759615384615,-0.23212171283660532
285,310.88442211055275,720.6884422110553,-0.22339265452517168
286,312.4950738916256,721.5492610837439,-0.2091660508783332
287,313.25,720.8834951456311,-0.22421843537588737
288,314.32394366197184,720.4835680751173,-0.2412790147194015
289,314.97539149888144,720.3668903803132,-0.2037473095270059
290,316.1440922190202,719.0835734870317,-0.21880751781548852
291,317.01199040767386,718.8992805755396,-0.2277667935640628
292,318.00977995110026,718.4767726161369,-0.2256455018411398
293,319.0278422273782,718.8515081206497,-0.2131129969353138
294,319.76610978520284,717.8758949880669,-0.21113938878165694
295,321.197889182058,718.820580474934,-0.208156215459629
296,322.13436692506457,719.0025839793282,-0.22304303649106574
297,323.3413978494624,718.5940860215054,-0.20064568763190538
298,324.11345646437996,718.4327176781003,-0.2145076277987795
299,325.23825503355704,719.493288590604,-0.22196073230251
300,326.06164383561645,718.6917808219177,-0.21854148275708962
301,327.30285714285714,720.1828571428572,-0.22008791875327946
302,328.24460431654677,720.5251798561151,-0.22363678438816573
303,329.3320754716981,720.822641509434,-0.23609561162929735
304,330.2833333333333,720.9333333333334,-0.2309052266813817
305,331.49795918367346,721.9020408163266,-0.23548822610374548
306,332.4583333333333,722.4541666666667,-0.24080902372350377
307,333.45217391304345,722.8,-0.2501865955325184
308,334.63800904977376,723.7511312217194,-0.25533491429425187
309,335.7511520737327,724.4562211981566,-0.26265890570519124
310,336.63106796116506,724.7427184466019,-0.2663510459354741
311,338.1137440758294,726.2748815165877,-0.28817630494178365
312,339.07731958762884,726.5051546391753,-0.2949669137488119
313,339.89732142857144,726.9910714285714,-0.31394195441008843
314,340.7351598173516,726.7671232876712,-0.3285300804676881
315,341.97237569060775,727.6685082872929,-0.332101648793546
316,342.8404255319149,727.8776595744681,-0.3393271867662594
317,343.38222222222225,727.16,-0.3385343082931427
318,344.35593220338984,727.4194915254237,-0.382920452666002
319,345.18260869565216,727.9652173913043,-0.3765974853105113
320,346.4075630252101,728.5882352941177,-0.45691359852613583
321,346.89256198347107,729.3388429752066,-0.38127620825910863
322,348.0131578947368,729.6535087719299,-0.41782810003804643
323,348.75,729.9298245614035,-0.37078579870780465
324,349.63967611336034,730.5465587044534,-0.3626071656114642
325,350.140562248996,731.289156626506,-0.19739158242348032
326,351.0483870967742,731.9516129032259,-0.15354291117423519
327,352.40458015267177,732.6526717557252,0.04035850797069344
328,353.37404580152673,733.5458015267176,0.08573347108950322
329,354.2043010752688,734.4229390681004,0.15007287971634772
330,355.1308724832215,735.771812080537,0.17307290957828567
331,356.1190476190476,736.3367346938776,0.1999670158052354
332,356.93046357615896,737.6688741721854,0.1613547312086506
333,358.09294871794873,737.4487179487179,0.18819736380505617
334,359.1823056300268,738.8766756032171,0.22590153426699464
335,359.830985915493,738.8732394366198,0.1378022549332346
336,360.87288135593224,741.1299435028249,0.15566642062519567
337,361.97297297297297,740.9027027027028,0.16337948250361548
338,362.73490813648294,741.8923884514436,0.19041435114781724
339,363.9761273209549,742.3633952254642,0.14654098921077757
340,364.8886198547216,742.9055690072639,0.1387152075455366
341,365.87146529562983,743.6041131105399,0.166214789765059
342,366.63212435233163,744.9637305699482,0.1393210488841402
343,367.434554973822,745.5994764397906,0.14879349084958288
344,368.2506393861893,745.9130434782609,0.12940939486420722
345,369.27272727272725,746.1497326203208,0.14598367075453583
346,370.4233766233766,746.9324675324675,0.14556058793186363
347,371.3324538258575,746.646437994723,0.1308022588497974
348,372.27073170731705,747.6341463414634,0.13743287111589564
349,373.24556962025315,747.8784810126582,0.13638960363562552
350,374.0889423076923,748.2740384615385,0.13605448370974504
351,375.1984126984127,748.0396825396825,0.13634503708492163
352,375.93882978723406,747.813829787234,0.12906904412128442
353,376.7704485488127,747.9313984168865,0.15252023845092783
354,377.77595628415304,748.3306010928961,0.13387367528174707
355,378.73121387283237,748.9884393063584,0.14208670882101493
356,379.62582781456956,748.3940397350993,0.14346923348058904
357,380.4727272727273,748.4787878787879,0.1501540149442472
358,381.38260869565215,747.6550724637681,0.14457437841507384
359,382.5229681978799,746.6254416961131,0.1526319018167054
360,383.4280575539568,745.7482014388489,0.15401397367192088
361,384.3525641025641,746.3108974358975,0.1608172708944559
362,385.38257575757575,745.2234848484849,0.17050565995375336
363,386.356,744.592,0.1743992630819934
364,387.55471698113206,743.1018867924529,0.19304369617609984
365,388.1260504201681,743.8361344537815,0.18809193896158724
366,389.34632034632034,742.7229437229437,0.19909198110030601
367,390.11574074074076,742.1574074074074,0.20161648421733597
368,391.08181818181816,741.5772727272728,0.20910032890570002
369,392.0576923076923,740.8076923076923,0.22135880787513484
370,392.947619047619,740.7761904761904,0.2252168277907707
371,393.75688073394497,740.5733944954128,0.23697148013335712
372,394.45901639344265,741.311475409836,0.28381098504507263
373,395.417004048583,740.7044534412955,0.2527043772530991
374,396.1003861003861,740.6795366795367,0.2739588865860184
375,396.9395348837209,740.2279069767442,0.3117391453770035
376,397.80988593155894,740.3574144486693,0.35328342222724646
377,398.8467741935484,739.2862903225806,0.30935429066628944
378,399.44444444444446,739.5884773662551,0.37066117366760154
379,400.0448979591837,739.4122448979592,0.34693242621780035
380,401.14044943820227,738.5730337078652,0.3991297188474484
381,402.0444444444445,737.8722222222223,0.39456831515547686
