FrameNo,Row,Column,Angle
31,12.793040293040294,794.6575091575091,0.26961577687699745
32,15.33448275862069,794.1672413793103,0.2726028445921207
33,17.198290598290598,794.0700854700855,0.2751432976564126
34,19.506238859180037,793.777183600713,0.2711484671988848
35,20.875177304964538,793.9858156028369,0.2930729072730433
36,23.35409252669039,793.7918149466192,0.28879426436511035
37,25.0,793.690780141844,0.31515055796636116
38,27.300359712230215,793.4928057553957,0.29574779963310316
39,29.358792184724688,793.1776198934281,0.31173755607218073
40,31.484288354898336,793.2144177449168,0.3062392756258878
41,33.181409295352324,793.2518740629685,0.35427786529120253
42,35.206896551724135,793.5232383808096,0.33961248104849207
43,37.23873873873874,793.1951951951952,0.3445818680758647
44,39.14705882352941,793.0572755417957,0.36415899020247455
45,41.44461778471139,792.8439937597504,0.35550758891473866
46,43.5625,792.717803030303,0.36188003887636894
47,45.37763371150729,792.5753646677472,0.3956418245364747
48,47.523424878836835,792.5153473344103,0.39160731833930096
49,49.6797385620915,792.2990196078431,0.38254822769883656
50,51.57307060755337,792.1740558292282,0.406323050788864
51,53.86788617886179,791.9126016260162,0.3915759466552485
52,55.54329371816638,791.8353140916809,0.4258340128609319
53,57.554794520547944,791.9366438356165,0.41585049725944956
54,59.94329896907217,791.544673539519,0.469018459552263
55,61.876106194690266,791.6654867256638,0.4261341226693558
56,63.704174228675136,791.4246823956443,0.4549895070230903
57,65.86080586080585,791.2985347985348,0.47800841571041663
58,67.97977941176471,790.96875,0.5227674186198507
59,69.89852398523985,790.9649446494465,0.545672565730756
60,72.13257575757575,790.8806818181818,0.514723158398508
61,74.293542074364,790.5557729941291,0.5426642322576407
62,76.25984251968504,790.4488188976378,0.5612434293456323
63,78.42913385826772,790.2992125984252,0.5678496906894127
64,80.39430894308943,790.109756097561,0.5793481231686226
65,82.36213991769547,790.0390946502057,0.605296107908623
66,84.28540772532189,789.7789699570816,0.6443638686084823
67,86.568669527897,789.7167381974249,0.6130843823555397
68,88.68172043010753,789.2731182795699,0.6784292001968896
69,90.80580357142857,789.2008928571429,0.6494357401833842
70,92.84510250569475,789.0956719817767,0.6910859763771378
71,94.725,789.0431818181818,0.7352032147478386
72,97.05437352245863,788.7281323877069,0.7481264080539122
73,98.92548076923077,788.5625,0.7698612814544927
74,101.17079207920793,788.3762376237623,0.7747455363556517
75,103.18891687657431,788.3727959697733,0.790737004506524
76,105.24358974358974,788.1051282051283,0.7970475417117071
77,107.27061855670104,787.9768041237113,0.8427946682226648
78,109.58528428093645,787.4448160535117,0.8259263822571281
79,111.54038997214485,787.4651810584958,0.8686914055325397
80,113.62640449438203,787.1910112359551,0.9085415021570439
81,115.81049562682216,787.2157434402333,0.9298331911328795
82,117.88990825688073,786.9051987767584,0.9626306913338578
83,119.93558282208589,786.5736196319018,0.953817261399381
84,122.05537459283387,786.4234527687297,0.9900459078002766
85,124.01973684210526,786.2565789473684,1.018059331895006
86,126.04081632653062,786.0510204081633,1.0154030954291882
87,128.1958762886598,785.8659793814433,1.049240670168785
88,130.59245283018868,785.4150943396227,1.0566125473917198
89,132.30827067669173,785.3571428571429,1.08849705197355
90,134.89285714285714,785.0357142857143,1.0890405598824775
91,136.53968253968253,784.9761904761905,1.1338610637953326
92,138.86580086580085,784.6926406926407,1.1415056896237212
93,141.06637168141594,784.4734513274336,1.1404979066045893
94,142.92488262910797,784.3708920187794,1.1533127920057127
95,145.28571428571428,784.0886699507389,1.1832630297924143
96,147.39267015706807,783.7591623036649,1.2080922866352548
97,149.4240837696335,783.6649214659686,1.2383390061268302
98,152.17816091954023,783.3218390804598,1.2524365873044858
99,153.93567251461988,783.187134502924,1.258234626279345
100,155.97435897435898,783.0897435897436,1.2673941961418598
101,158.15068493150685,782.7739726027397,1.284514826637063
102,160.2230215827338,782.5755395683453,1.3079691444196104
103,162.54545454545456,782.2348484848485,1.3166124642461783
104,165.0762711864407,781.9661016949152,1.3248811226156432
105,170.15,781.125,1.341963224374681
106,171.71084337349396,781.2168674698795,1.3611531341598266
107,177.3709677419355,780.4516129032259,1.3925286766266352
108,177.43661971830986,780.8028169014085,1.3958541345862159
109,176.3783783783784,781.1891891891892,1.4220764742756689
110,178.140350877193,781.0701754385965,1.4428938897102694
111,180.03100775193798,780.968992248062,1.4674997588706578
112,181.8478260869565,780.7391304347826,1.4755674830499177
113,183.75886524822695,780.5106382978723,1.4976019940108916
114,185.67741935483872,780.3483870967742,1.5225754962695868
115,187.91612903225808,780.1225806451613,1.5360551557394921
116,189.66863905325442,779.9585798816568,1.5589338629997838
117,191.68965517241378,779.683908045977,1.5660394890214675
118,194.01639344262296,779.4918032786885,-1.5451013357364614
119,196.02020202020202,779.2272727272727,-1.53460726111588
120,198.23923444976077,779.1004784688995,-1.5102088090679304
121,200.30143540669854,778.8516746411483,-1.497428816599395
122,202.35242290748897,778.5198237885463,-1.4841584889405774
123,204.5022026431718,778.3568281938326,-1.4414420551836347
124,206.31380753138075,778.1046025104603,-1.4707204136268242
125,208.65612648221344,777.9881422924901,-1.4259281045851302
126,210.81865284974094,777.7772020725389,-1.3537667283648713
127,212.6278195488722,777.4624060150376,-1.3864594715240992
128,214.9247311827957,777.2759856630825,-1.3627600704438987
129,217.0344827586207,777.1344827586207,-1.3464337613136093
130,218.68524590163935,776.7311475409836,-1.3487094354010816
131,221.17857142857144,776.5616883116883,-1.3012214650230716
132,223.69592476489026,776.3134796238245,-1.2825097009085769
133,225.86915887850466,776.1121495327103,-1.2525998297789325
134,227.72507552870093,775.8338368580061,-1.2353791258469042
135,230.3371757925072,775.864553314121,-1.1969786070937147
136,232.0843023255814,775.3924418604652,-1.2066295447040867
137,234.06849315068493,775.1616438356165,-1.2102987093918394
138,236.27173913043478,774.9701086956521,-1.179501431890911
139,238.55897435897435,775.0461538461539,-1.1273092262582185
140,240.58868894601542,774.5706940874036,-1.1271715407524958
141,242.6253164556962,774.2177215189873,-1.1160750274902655
142,244.95989974937345,774.0701754385965,-1.105413820312522
143,247.05172413793105,773.8152709359606,-1.0682851917510814
144,249.01654846335697,773.4657210401891,-1.0633457269385165
145,251.6574074074074,773.3796296296297,-1.0286896863096904
146,253.304932735426,773.170403587444,-1.059895465143568
147,255.710407239819,772.9230769230769,-0.9925794563189017
148,257.7438202247191,772.6696629213483,-0.9916456481343359
149,259.8936170212766,772.3106382978724,-0.9536360934476947
150,262.2980972515856,772.4418604651163,-0.9638975016065318
151,264.2054507337526,771.9077568134172,-0.9289049327783508
152,266.45081967213116,771.9959016393443,-0.904650846050223
153,268.65843621399176,771.4938271604938,-0.8890094803020471
154,270.72654690618765,771.3013972055888,-0.8802868173777858
155,272.748502994012,771.1477045908184,-0.8963811277212062
156,275.23846153846154,770.8461538461538,-0.8705104296933958
157,277.294921875,770.701171875,-0.8536961584518737
158,279.37333333333333,770.4285714285714,-0.8183859577161151
159,281.593984962406,770.2105263157895,-0.8117945478455754
160,283.81386861313865,770.0091240875912,-0.8119743244810524
161,285.8637992831541,769.7455197132616,-0.81689654823544
162,287.8152753108348,769.3001776198935,-0.7950060443329364
163,290.46785714285716,769.2178571428572,-0.7721566877742327
164,292.7306338028169,769.036971830986,-0.7676210602796646
165,294.7046632124352,768.7305699481865,-0.730104656847161
166,297.06132879046,768.7819420783645,-0.7528634425607816
167,299.1162790697674,768.3255813953489,-0.7325927998419279
168,301.3597972972973,768.1621621621622,-0.7240013395612129
169,303.5911330049261,767.9901477832512,-0.7007815972885632
170,305.76307189542484,767.6781045751634,-0.6933118379955082
171,307.7642405063291,767.492088607595,-0.6764939296526543
172,309.9553429027113,767.2408293460925,-0.6754895128509412
173,313.06995884773664,767.3724279835391,-0.6376848417652994
174,314.40880503144655,766.7389937106918,-0.6660546709467465
175,317.7134020618557,767.2350515463918,-0.6378382380605891
176,318.7705167173252,766.3297872340426,-0.6580495192434875
177,321.94871794871796,766.6311637080868,-0.6238239943749648
178,323.43975903614455,766.2033132530121,-0.6448040406824622
179,326.952772073922,766.611909650924,-0.5551143513444217
180,328.853228962818,766.2896281800391,-0.5873469214077952
181,330.6890130353818,765.7839851024208,-0.5967248235254573
182,331.8938307030129,764.9469153515065,-0.6355465111290781
183,334.24745269286757,764.8034934497816,-0.6255771248235524
184,337.4889298892989,765.1273062730627,-0.5790464313896262
185,339.6630434782609,764.9873188405797,-0.5628675713116095
186,341.6702317290553,764.6434937611408,-0.5741876788949638
187,344.2108208955224,764.570895522388,-0.5524294190122382
188,346.7588126159555,764.7699443413729,-0.5486373996873644
189,348.69642857142856,764.3428571428572,-0.567972467238146
190,350.8666666666667,764.0018018018018,-0.5510864739650521
191,353.15520282186947,763.6331569664903,-0.5295776953759889
192,355.4059753954306,763.5043936731107,-0.5511728617142582
193,356.6080536912752,762.7342281879195,-0.559024976752742
194,359.8394415357766,763.1064572425829,-0.5310068577827015
195,361.72,762.7666666666667,-0.5387531759348307
196,364.5833333333333,762.9739583333334,-0.518216330075919
197,366.52782462057337,762.3254637436762,-0.5161753533811749
198,368.6374172185431,762.1076158940398,-0.5199205517941894
199,370.75447154471544,761.790243902439,-0.5271467505691656
200,372.99840764331213,761.702229299363,-0.5185327159011439
201,375.1309904153355,761.3690095846646,-0.5277642834658202
202,377.75496688741725,761.6258278145696,-0.5000678791476645
203,379.8669871794872,761.1586538461538,-0.5155565772568379
204,381.9341894060995,760.784911717496,-0.521215603721114
205,384.3019169329074,760.5814696485623,-0.4918559695821833
206,386.3517350157729,760.2902208201892,-0.5042698620267372
207,388.8209191759113,760.4041204437401,-0.495547153172757
208,391.1613924050633,760.5158227848101,-0.49408899179941984
209,393.2286158631415,759.850699844479,-0.48902076444015286
210,395.4984375,759.7484375,-0.49479990094857346
211,397.58447488584477,759.6575342465753,-0.49586019267008324
212,400.1136712749616,759.3302611367128,-0.4776274019798646
213,401.9955022488756,758.9700149925037,-0.4900239895832066
214,404.270553064275,758.542600896861,-0.4754142395023154
215,406.57748538011697,758.4605263157895,-0.48487131755509544
216,408.825327510917,758.292576419214,-0.48940225417705474
217,410.9523121387283,757.9118497109827,-0.4746444086752447
218,413.49554896142433,757.9317507418398,-0.4686139794650436
219,416.22720247295206,758.2287480680062,-0.46384357250692865
220,419.05546492659056,758.6851549755302,-0.43548147102422025
221,425.62745098039215,765.0952380952381,-0.35909726496998634
222,424.35602094240835,758.912739965096,-0.4072343537779498
223,425.0593471810089,757.5074183976261,-0.45864299001757536
224,427.34365781710915,757.0929203539823,-0.4601822281370193
225,432.1796407185629,759.4191616766467,-0.3643798983629075
226,432.043219076006,756.8852459016393,-0.45767445465535517
227,434.4289985052317,756.6920777279522,-0.4516707110356969
228,436.70789865871836,756.3055141579732,-0.43700694434990434
229,438.6370056497175,755.7782485875706,-0.44909462718502785
230,444.7544642857143,758.8683035714286,-0.35023824502696144
231,446.4564315352697,757.9149377593361,-0.3483174039714662
232,448.8945147679325,757.5632911392405,-0.35164246145715883
233,450.24175824175825,757.1941391941392,-0.3637708742459676
234,454.96875,759.7734375,-0.3238140433479514
235,452.05059920106527,754.6271637816245,-0.44600480413134924
236,455.5121212121212,754.9742424242424,-0.4256527595808225
237,457.50073206442164,755.0058565153734,-0.42038142787906824
238,459.6204906204906,754.3001443001443,-0.4238393805474801
239,461.875,754.1306179775281,-0.433263995052241
240,467.5917926565875,757.2678185745141,-0.33438389530219004
241,466.68075801749274,754.0626822157434,-0.4189754959122663
242,469.94444444444446,754.6633986928105,-0.3965026948976387
243,471.5621212121212,753.7227272727273,-0.42275616961121837
244,473.9754224270353,753.8018433179724,-0.4077103864622745
245,475.0610583446404,753.033921302578,-0.43781517282135635
246,477.6842105263158,752.972299168975,-0.4386193661877227
247,480.6595744680851,753.0455927051671,-0.414732443319223
248,482.1548117154812,752.5983263598326,-0.43776612528953995
249,484.5186721991701,752.5006915629323,-0.42894475539303634
250,487.1758865248227,752.4624113475177,-0.4264083342171253
251,489.0560875512996,752.1162790697674,-0.43663816027905783
252,491.45786516853934,752.0028089887641,-0.4232139059898554
253,493.9115168539326,751.8314606741573,-0.4331049479684075
254,496.1281690140845,751.6464788732394,-0.4386491683239735
255,498.30206896551726,751.288275862069,-0.42690478708546853
256,500.52868852459017,751.2827868852459,-0.4377810471144194
257,502.92065663474693,751.1819425444596,-0.43770594885861175
258,505.25103448275866,751.0110344827586,-0.4320710920467725
259,507.5896739130435,750.7989130434783,-0.42798754395020744
260,509.88466757123473,750.7951153324287,-0.4332928866142941
261,511.9919246298789,750.5679676985195,-0.43460960658299935
262,514.3662162162162,750.2689189189189,-0.4379366627654346
263,516.7698519515478,750.1238223418574,-0.43321307083758265
264,518.9879518072289,749.9585006693441,-0.42544576750324503
265,521.4884667571234,750.257801899593,-0.4388344519732665
266,523.7082228116711,749.8899204244032,-0.4281878906544773
267,526.0027173913044,749.6345108695652,-0.4355006164557932
268,528.5305232558139,749.703488372093,-0.43094523170798704
269,530.8798283261802,749.8097281831188,-0.43990602547404234
270,533.0876944837341,749.5289957567186,-0.4360293011969931
271,536.1,752.3381818181819,-0.5172188470029232
272,537.6390134529148,748.8273542600897,-0.429005999444298
273,539.9681318681319,749.0296703296704,-0.43843450281770324
274,542.2243735763097,748.7050113895216,-0.42352668122038667
275,544.4972557628979,748.8035126234906,-0.4255276946964674
276,546.9523269012486,748.5709421112372,-0.4348111295046645
277,549.3157894736842,748.3421052631579,-0.4320235335154707
278,551.8303370786517,748.114606741573,-0.4144786665251684
279,554.2329988851728,748.2463768115942,-0.43947768840739854
280,556.4870641169854,748.0877390326209,-0.4267840496253102
281,558.8788221970555,747.9241223103057,-0.41725165330163116
282,561.1948488241882,747.7413213885778,-0.4225394890233963
283,563.5513698630137,747.7602739726027,-0.42940697011823376
284,565.9977090492555,747.475372279496,-0.43065011544135506
285,568.3977653631284,747.8837988826815,-0.4102290853357652
286,570.4860788863109,747.2737819025522,-0.4116976192053587
287,573.0897583429229,747.5937859608746,-0.4254368581177352
288,575.4764638346728,747.2962112514351,-0.45124875878463233
289,577.6743648960739,746.8799076212471,-0.4158471375289112
290,580.0877192982456,746.9707602339181,-0.42722331181723205
291,582.8411967779057,747.1933256616801,-0.42524811862491857
292,584.9845788849348,746.9667852906286,-0.4218993719929296
293,587.451348182884,746.865181711606,-0.424162348081339
294,589.4844497607655,746.3456937799043,-0.42873076537473054
295,592.1158021712907,746.4668275030157,-0.4169083209965095
296,594.5498812351544,746.4513064133016,-0.435913263816364
297,597.0535931790499,746.5651644336175,-0.42518861561635013
298,599.9294670846396,747.653605015674,-0.4480616579808233
299,602.2911392405064,747.6139240506329,-0.44054013843794665
300,605.1483420593369,749.0017452006981,-0.48046598082205855
301,607.176759410802,747.4075286415712,-0.43725185789619075
302,609.3616352201258,746.6933962264151,-0.4239561702285618
303,615.6164772727273,748.9801136363636,-0.3504866960448217
304,614.3912337662338,746.887987012987,-0.4183578407225999
305,616.936772046589,746.9434276206323,-0.4078462964327475
306,619.0459587955626,746.3137876386688,-0.4239308246424957
307,621.6866883116883,746.5503246753246,-0.4146223883583139
308,623.9703459637561,746.0560131795717,-0.40571139020519514
309,626.4917218543046,746.0629139072847,-0.4120552729314062
310,628.8314238952537,746.1162029459902,-0.41077785632102015
311,631.283082077052,746.212730318258,-0.4322758477796119
312,633.760655737705,746.155737704918,-0.4227697044627956
313,636.6425992779783,746.6353790613719,-0.40360109077447237
314,638.6258389261745,746.0033557046979,-0.4072654950281135
315,641.7054409005628,746.3602251407129,-0.39177515972768345
316,643.5296167247386,745.8623693379791,-0.4069891513172669
317,645.9842657342657,745.722027972028,-0.4016380502989157
318,648.2027972027972,745.7832167832167,-0.4242976588766651
319,651.5496183206106,746.1927480916031,-0.38023332902753443
320,653.6896551724138,745.8295019157088,-0.4109244655731538
321,655.6029411764706,745.3419117647059,-0.41307206765220655
322,658.4114285714286,745.6057142857143,-0.4075005064952277
323,661.2653465346534,745.9247524752475,-0.40008112517351485
324,663.8133874239351,746.3407707910751,-0.39675247210006626
325,666.6738197424893,746.2317596566523,-0.3691174082592515
326,668.3292929292929,745.8262626262626,-0.40485639629098047
327,671.0,745.938947368421,-0.41471706587592705
328,672.080476900149,745.107302533532,-0.4607868459266087
329,675.1650671785029,745.3454894433781,-0.43165820812881356
330,677.8415841584158,745.689108910891,-0.44038107476429417
331,679.3822629969419,744.9189602446484,-0.46891087975379997
332,682.5263157894736,745.224171539961,-0.4434646206950788
333,684.8765182186235,745.2186234817814,-0.444752279076413
334,687.3975903614457,745.222891566265,-0.4493206516714197
335,691.6294416243654,746.1700507614213,-0.39592407302738203
336,691.7568881685576,744.9837925445705,-0.45776935226266585
337,694.1058631921824,744.9055374592834,-0.4750590444558127
338,697.6666666666666,745.0733333333334,-0.4362008351222689
339,699.9798206278027,745.2757847533633,-0.4363379038931219
340,703.2162162162163,745.4078624078625,-0.3895743015502495
341,704.0420168067227,745.0218487394958,-0.5063935104714723
342,706.4888123924269,744.9535283993115,-0.5045765303323434
343,708.9505119453925,744.7525597269624,-0.48544523297713144
344,711.4465849387041,744.8739054290718,-0.503549623623009
345,713.9260563380282,745.012323943662,-0.519119387621825
346,716.4428822495606,745.0404217926186,-0.5109796463246129
347,718.8738898756661,744.9094138543517,-0.5222324991261916
348,721.2805755395683,744.9568345323742,-0.5249353803623622
349,723.6373626373627,744.8186813186813,-0.5340413396446798
350,726.0756457564576,744.8560885608856,-0.5447433047117908
351,728.7100371747212,744.9944237918215,-0.5535138813291688
352,731.003745318352,744.8483146067416,-0.5363945001355204
353,733.6469465648855,745.1145038167939,-0.5679410619102623
354,736.0649606299213,744.8602362204724,-0.5574375420289346
355,738.5810276679842,744.8735177865613,-0.577956884337429
356,741.0675944333996,745.1530815109344,-0.5986634889189113
357,743.4685598377282,745.0628803245436,-0.6177766005052384
358,745.934,745.05,-0.604629052433029
359,748.3717171717171,745.1090909090909,-0.6184276421839023
360,750.8882113821138,745.2621951219512,-0.6215673507096732
361,753.447983014862,745.1380042462845,-0.6288057326840859
