FrameNo,Row,Column,Angle
1,30.106425702811244,743.425702811245,0.35743893713927855
2,32.11336032388664,742.940620782726,0.36613242655355827
3,33.77746870653686,742.990264255911,0.3513014853207068
4,35.760989010989015,742.9752747252747,0.3579302401084495
5,37.75710227272727,742.546875,0.336039317910407
6,39.04322766570605,742.7449567723343,0.34396386285174324
7,41.12884333821376,742.7247437774524,0.33706754534113725
8,42.72049689440994,742.7841614906832,0.34175643232958014
9,44.45542949756888,742.7990275526743,0.32742141694207644
10,46.21943573667711,742.9043887147335,0.32766930520586574
11,47.83223684210526,742.3141447368421,0.3255885980862632
12,49.89267461669506,742.0102214650767,0.33301296710049727
13,51.12991452991453,742.3709401709402,0.319069288375602
14,52.92374350086655,742.7798960138648,0.31491651147548444
15,54.70652173913044,742.1757246376811,0.3210950843456112
16,56.66604823747681,741.6215213358071,0.3298070156289001
17,58.36893203883495,741.6815533980582,0.3367618136905612
18,59.5945945945946,741.4826254826255,0.3508931666125225
19,61.458585858585856,741.6262626262626,0.33273577396370435
20,63.28033472803347,740.86820083682,0.31250284860076816
21,64.95238095238095,740.969696969697,0.3236246846277872
22,66.4502262443439,740.7239819004525,0.31732316678767086
23,68.37708830548927,739.9045346062053,0.366949053865633
24,69.923273657289,739.6572890025575,0.3408997952257153
25,71.55118110236221,739.3333333333334,0.35135151338849446
26,73.34818941504179,739.4623955431755,0.34606414124193446
27,74.96130952380952,739.0922619047619,0.3754947457279443
28,76.49683544303798,738.9841772151899,0.3733853656955156
29,78.1371237458194,738.3578595317725,0.4002220358900258
30,79.78745644599303,738.0243902439024,0.3869936799196534
31,81.08778625954199,737.8854961832061,0.44307432351456033
32,82.9535864978903,737.084388185654,0.4241204519985398
33,84.44871794871794,736.9017094017094,0.45629093644367363
34,86.23076923076923,736.4343891402715,0.45325231600322063
35,87.89285714285714,735.9345238095239,0.47565537679149145
36,89.75539568345324,735.294964028777,0.47672715799267273
37,91.20143884892086,735.1294964028777,0.5127977267864108
38,93.78703703703704,732.9907407407408,0.49605883644398596
39,96.95890410958904,730.7671232876712,0.424615699803586
40,96.79130434782608,733.5652173913044,0.5320724231903929
41,98.06201550387597,733.5658914728682,0.5957775573985351
42,99.28676470588235,733.875,0.6213338935265004
43,100.67785234899328,733.7248322147651,0.6432898383458322
44,102.0506329113924,733.5759493670886,0.6514164803198954
45,103.68852459016394,733.2622950819672,0.6444223312227085
46,104.93877551020408,732.5867346938776,0.589242908540116
47,105.98245614035088,732.5877192982456,0.5822894436659889
48,107.80365296803653,731.9178082191781,0.47614493810160596
49,109.03225806451613,731.2741935483871,0.43141073189517853
50,110.82089552238806,730.5485074626865,0.2707466060086183
51,112.28472222222223,729.9652777777778,0.20008522753300734
52,113.67605633802818,729.6760563380282,0.08131195292009939
53,115.09666666666666,728.9366666666667,-0.0024287635402129443
54,116.41176470588235,728.3622291021671,-0.12782021574511962
55,118.23008849557522,728.0147492625368,-0.11421975175236634
56,119.29014084507043,727.9859154929577,-0.14377098417940617
57,120.71236559139786,726.741935483871,-0.1377733726440202
58,122.2911051212938,726.6010781671159,-0.14200509210760626
59,123.95049504950495,725.6386138613861,-0.14225712029831353
60,125.33417721518987,725.4607594936709,-0.11887603496723034
61,126.49400479616307,725.1654676258993,-0.1397295684625861
62,128.01173708920186,724.3755868544602,-0.17411669270211932
63,129.38443935926773,723.5217391304348,-0.21165518602863503
64,130.84841628959276,723.183257918552,-0.19542994433470626
65,131.9912087912088,722.4351648351649,-0.17729243482033255
66,133.5572354211663,722.2505399568034,-0.219661249713283
67,134.99550561797753,721.476404494382,-0.21515465049443439
68,136.67016806722688,721.2457983193277,-0.20615080776298078
69,137.7979797979798,720.8363636363637,-0.21242068963099509
70,138.71428571428572,719.7936507936508,-0.2370290925804255
71,140.55983772819474,720.2718052738337,-0.2372473724620128
72,141.74059405940594,719.5881188118811,-0.24463717522691736
73,143.08367346938775,718.6367346938775,-0.23326866203791086
74,144.6993987975952,718.8897795591182,-0.22978447528570212
75,145.76699029126212,718.4097087378641,-0.24053207185151645
76,147.28194726166328,717.3549695740365,-0.2566415530663593
77,148.41491395793497,716.8891013384322,-0.2642306393588394
78,149.87051792828686,716.7908366533865,-0.23716618514511684
79,150.9591836734694,715.6673469387755,-0.264897040236012
80,152.6869918699187,716.3333333333334,-0.25960122771856736
81,154.21810699588477,716.0144032921811,-0.26539226506756985
82,155.1158536585366,715.4634146341464,-0.2822967252466854
83,156.3565400843882,714.873417721519,-0.266749222302499
84,157.76771653543307,714.517716535433,-0.2813915954129216
85,159.3006396588486,715.2068230277185,-0.27685501008441926
86,160.80467091295117,715.2335456475583,-0.30192150676493795
87,161.65983606557376,714.3381147540983,-0.3019513964609001
88,162.98121085594988,714.4237995824635,-0.302633188803037
89,164.5939524838013,714.5161987041037,-0.31650368202397383
90,166.10805084745763,714.2690677966102,-0.3074050594301037
91,167.59285714285716,715.2738095238095,-0.31488643376399783
92,168.49881235154396,714.4061757719714,-0.32234174160607304
93,170.0939226519337,714.7486187845304,-0.328582906909288
94,171.42051282051284,714.6717948717949,-0.3439064992373935
95,172.8654970760234,715.1608187134503,-0.3453863844402512
96,173.89113924050633,715.0050632911392,-0.36678386106286487
97,176.04347826086956,716.583850931677,-0.3523333432306306
98,176.9859943977591,715.6134453781513,-0.36332410690028516
99,178.42413793103447,716.1172413793104,-0.37400829734070506
100,179.87003610108303,716.8628158844765,-0.37216389575405834
101,181.42960288808666,717.5487364620939,-0.3971118963376534
102,183.26086956521738,718.505928853755,-0.4059062039770518
103,184.78884462151393,718.9402390438247,-0.4170904282786555
104,186.07555555555555,719.1244444444444,-0.41788767848641173
105,187.79338842975207,720.1859504132232,-0.444483194149231
106,189.4212765957447,720.9829787234042,-0.44534468930435533
107,191.12875536480686,721.8969957081545,-0.46352243407632193
108,192.31196581196582,721.7649572649573,-0.4943569093784041
109,193.73378839590444,722.307167235495,-0.4928934132567304
110,194.31290322580645,721.0129032258064,-0.5337932828610746
111,196.07086614173227,721.5905511811023,-0.5480712425429917
112,196.8538961038961,721.3084415584416,-0.5667866421186859
113,198.19230769230768,721.3205128205128,-0.5944498236802809
114,199.39184952978056,721.3699059561129,-0.6088536599230229
115,201.07207207207207,722.072072072072,-0.6366975970707406
116,201.99112426035504,721.9792899408284,-0.6672770565304454
117,203.23275862068965,722.4568965517242,-0.6950484292681426
118,204.40117994100297,722.3097345132743,-0.6999490860429279
119,205.4942528735632,722.4310344827586,-0.7434448785770454
120,207.08938547486034,723.0614525139665,-0.7815624396453456
121,207.74598930481284,723.1898395721926,-0.857102429337044
122,209.19783197831978,723.7073170731708,-0.8655042703834757
123,210.42061281337047,724.0278551532033,-0.9209784631113695
124,211.3342318059299,724.4474393530998,-1.0360659535805155
125,212.94871794871796,724.6743589743589,-0.996150692932101
126,214.06510416666669,725.2526041666666,-1.1558622540228545
127,215.72564102564104,725.8307692307692,-1.246094362398784
128,216.78117048346056,726.4503816793894,1.491470440827181
129,217.93532338308458,727.1492537313433,1.0983865730820963
130,219.49751243781094,727.8333333333334,0.8451238594470579
131,220.95116279069768,728.1186046511627,0.729980165594785
132,222.24082568807341,728.5940366972477,0.6014062178883187
133,223.86373626373626,729.4835164835165,0.6623029136805826
134,224.8800856531049,730.2419700214133,0.5308292857189311
135,226.625,730.5504385964912,0.5308413918063308
136,227.60960334029227,731.4467640918581,0.49778874721100635
137,228.98101265822785,732.3122362869199,0.40713320667684244
138,230.70721649484534,732.5917525773195,0.4384672460754769
139,231.70623742454728,733.4185110663984,0.4075455696048592
140,232.8375,734.0375,0.3797381542484202
141,234.35225048923678,734.4305283757338,0.3773798439508004
142,235.56673511293633,735.2197125256673,0.3199140681486319
143,237.11776447105788,735.7644710578843,0.3117952657036443
144,238.21194605009634,736.5838150289018,0.3155162511460115
145,239.5868263473054,736.9181636726547,0.31008081756170547
146,241.00191570881225,737.139846743295,0.28456214088784754
147,242.0938123752495,737.9840319361277,0.2869785498434769
148,243.32934131736528,738.812375249501,0.26410984313191327
149,244.43502824858757,738.8286252354048,0.26136629572849973
150,246.75,737.9665492957746,0.29754620479854127
151,247.39691714836223,739.6917148362235,0.23592153326865697
152,248.79467680608366,739.8079847908746,0.24708229375033927
153,250.09732824427482,740.0076335877862,0.22534277122648616
154,251.37548638132296,740.8949416342413,0.22521444203512125
155,252.89271255060729,740.1963562753036,0.22766826890314532
156,253.83501006036218,741.4929577464789,0.22226017760928635
157,255.36811023622047,741.0649606299213,0.21976172901743177
158,256.5333333333333,742.0989898989899,0.18450531704346734
159,257.75456389452336,741.920892494929,0.20043860460538604
160,258.8041237113402,741.4288659793815,0.19580631500961065
161,260.4233128834356,741.2801635991821,0.20447208768419636
162,261.527950310559,741.3167701863354,0.19606777864793204
163,262.79452054794524,741.8949771689497,0.19953107361179934
164,264.0356347438753,741.9443207126949,0.19903154080321547
165,265.3626126126126,741.0788288288288,0.20440082797663855
166,266.35164835164835,741.8483516483517,0.23539993126412997
167,267.7745803357314,741.4700239808153,0.2104325305608502
168,269.16397228637413,740.6674364896074,0.19765913670905302
169,270.5398457583548,740.5321336760926,0.20516282804685912
170,271.7825,739.5425,0.2051187527497361
171,272.9676375404531,740.3754045307444,0.21305691690584877
172,274.2170818505338,739.814946619217,0.21990826247207076
173,275.49626865671644,739.1343283582089,0.22002927814141435
174,276.79026217228466,738.7752808988764,0.22642068431855575
175,278.19028340080973,737.506072874494,0.2221961117015076
176,279.4199134199134,736.8181818181818,0.22822640598241317
177,280.55454545454546,736.9772727272727,0.2432788596411398
178,281.80676328502415,736.6038647342996,0.25262326326536355
179,283.45454545454544,734.8663101604278,0.25388416805677405
180,284.8022598870057,733.7401129943503,0.26544979556185255
181,285.6842105263158,733.5631578947368,0.2641340606588529
182,287.2290502793296,732.8882681564246,0.2870135811690181
183,288.42528735632186,732.4022988505747,0.30388754279847385
184,289.73372781065086,731.7810650887574,0.3166252941314068
185,290.38071065989845,732.8172588832488,0.3318151041908777
186,291.4385026737968,732.7540106951872,0.35602015768557604
187,292.1344537815126,733.2563025210084,0.363114240320373
188,293.1515151515151,733.025974025974,0.39607157993225095
189,294.1967213114754,732.7868852459017,0.4216211177008599
190,295.52742616033754,732.042194092827,0.42069887288553093
191,295.88461538461536,732.8376068376068,0.479544860016747
192,297.6615969581749,731.787072243346,0.46097226986376116
193,298.6,730.9428571428572,0.4923857480904334
194,299.766081871345,730.4795321637426,0.5300913188941329
195,300.37894736842105,730.438596491228,0.38251357746069625
196,301.7157894736842,729.7368421052631,0.2725585834461544
197,302.7770034843206,728.6759581881533,-0.04700674970965371
198,303.5178571428571,728.1964285714286,-0.2992532325627368
199,304.73578595317724,727.9331103678929,-0.32999809868509156
200,305.81775700934577,727.1448598130842,-0.3879516655214532
201,306.61875,726.746875,-0.348582330029305
202,308.09333333333336,726.5022222222223,-0.4017693982321702
203,308.7323529411765,724.9617647058824,-0.33458627961003434
204,309.39889196675904,723.7673130193906,-0.3225570530443252
205,311.0383631713555,723.6240409207161,-0.31866851454935774
206,312.0,723.2342105263158,-0.3552740296576253
207,312.65974025974026,722.5636363636363,-0.340511114539063
208,313.41645244215937,720.4730077120822,-0.325138808442581
209,314.70942408376965,720.2958115183246,-0.31187423353936033
210,315.5075,719.7525,-0.29536079367264506
211,316.720987654321,719.2098765432099,-0.30186243897267395
212,317.7390243902439,718.4975609756098,-0.29915988565850327
213,318.8634259259259,718.2986111111111,-0.27499012600820166
214,320.13827160493827,717.9037037037037,-0.25754134041101023
215,321.0416666666667,717.0023148148148,-0.2591747651060865
216,321.9735576923077,716.2932692307693,-0.2711396063955748
217,322.85091743119267,714.5642201834862,-0.2275517810815869
218,323.9831325301205,715.0602409638554,-0.2569400457006089
219,325.15313225058003,714.9211136890951,-0.23721022664282018
220,325.7867647058823,713.9607843137255,-0.26452686378740753
221,327.2477477477478,715.3333333333334,-0.2337333889435918
222,328.1529745042493,714.1048158640226,-0.23680339301069367
223,329.33988764044943,713.8988764044943,-0.2533010468797233
224,330.11224489795916,713.2933673469388,-0.2568102594305094
225,331.2394736842105,713.2526315789473,-0.23806167396363972
226,332.29441624365484,713.225888324873,-0.24268474426538
227,333.4760638297872,713.3324468085107,-0.23862590344441817
228,334.44171779141107,713.2423312883436,-0.2431508403311741
229,335.46831955922863,713.6584022038568,-0.2453976371694504
230,336.49666666666667,713.3366666666667,-0.24519659950596104
231,337.6034482758621,713.6827586206897,-0.24781987514492582
232,338.8705035971223,714.2841726618705,-0.24865664843623844
233,339.8109090909091,714.1563636363636,-0.2528388108560884
234,341.0851851851852,715.2851851851851,-0.24044972836220824
235,342.3759689922481,716.0077519379845,-0.25500450430533517
236,343.2755905511811,716.1377952755905,-0.2606855763856787
237,344.865306122449,718.2163265306123,-0.2638296131118108
238,345.54468085106384,717.4255319148936,-0.2647951779961619
239,346.8909090909091,718.3636363636364,-0.2753109732859662
240,347.9955156950673,718.847533632287,-0.2773437652014014
241,349.26635514018693,719.8644859813085,-0.286954483897755
242,350.43601895734594,721.1611374407582,-0.29147098822777634
243,351.5656565656566,721.2424242424242,-0.2867242599455128
244,352.46632124352334,721.1917098445596,-0.3094353782251427
245,353.490099009901,721.7227722772277,-0.31802301940362077
246,354.5078534031414,721.5497382198953,-0.33093916853324906
247,355.47983870967744,721.4798387096774,-0.3630999730661365
248,356.077868852459,721.3401639344262,-0.3314387274486379
249,356.8218623481781,720.8663967611336,-0.3766594520572211
250,358.07177033492826,721.8612440191388,-0.39608778461875477
251,359.34191176470586,721.6544117647059,-0.46631867998334114
252,359.8663793103448,722.3103448275862,-0.3867212881787819
253,360.7791666666667,722.5916666666667,-0.4513224631380936
254,361.4153225806452,723.0766129032259,-0.4189648854368055
255,362.9502074688797,723.7717842323651,-0.4629981900019882
256,363.74308300395256,723.893280632411,-0.3967817021193549
257,364.33193277310926,724.1428571428571,-0.31365574436636534
258,365.2716535433071,725.0984251968504,-0.19864138185460203
259,366.31404958677683,726.1280991735537,0.06392461357785188
260,367.1633466135458,726.7051792828686,0.1461312488640474
261,368.2310606060606,727.7878787878788,0.17635933247220908
262,368.9496124031008,728.4767441860465,0.23585771250975096
263,370.1449275362319,729.1159420289855,0.27633066424748487
264,370.93840579710144,730.2644927536232,0.2133774697775393
265,371.87368421052633,730.9859649122807,0.24788875923787856
266,372.90429042904293,731.5874587458745,0.22177331695145439
267,373.9769736842105,732.421052631579,0.2132109339984985
268,374.7483870967742,733.0903225806452,0.21168574503912843
269,375.8816199376947,733.6292834890966,0.21251389306051677
270,376.6391437308869,734.0030581039755,0.20625150757346816
271,377.72754491017963,734.1706586826348,0.16608652250364034
272,379.2022471910112,733.7921348314607,0.20567455233835033
273,379.51552795031057,737.1273291925465,0.17713788757544147
274,380.6111111111111,736.9444444444445,0.19100108274660352
275,381.5601265822785,737.5126582278481,0.18009686556582014
276,382.13461538461536,737.8434065934066,0.1721327112709523
277,382.74789915966386,739.313725490196,0.1764520906214999
278,384.08417508417506,739.010101010101,0.1720990630094395
279,385.1275964391691,739.6231454005934,0.19211272562392576
280,383.80645161290323,751.6290322580645,0.11567224891829551
281,386.88853503184714,738.968152866242,0.16865573368484246
282,385.6119402985075,751.776119402985,0.14563994206665543
283,388.7985611510791,739.7985611510792,0.17350845553794797
284,393.1379310344828,721.1206896551724,0.1991040742392737
285,388.96261682242994,747.7757009345794,0.16587395383538153
286,391.43609022556393,739.3496240601504,0.18564197221737166
287,395.4,722.9866666666667,0.17741710941044672
288,396.1309523809524,723.452380952381,0.1829895937147092
289,394.2436974789916,738.2941176470588,0.18298122222054544
290,395.28,737.876,0.1783766696265257
291,396.2669322709163,737.0478087649402,0.19103470422192032
292,397.0938775510204,737.2897959183673,0.19658778853668893
293,398.0590717299578,736.5738396624472,0.1994178764345373
294,399.1054852320675,735.5822784810126,0.2090094130076951
295,400.37619047619046,733.1714285714286,0.2196887684657778
296,400.9099099099099,734.9504504504505,0.2176340999420543
297,401.9201680672269,733.672268907563,0.22458779503676282
298,402.7117903930131,733.3100436681223,0.2309299966971892
299,403.2358490566038,735.1477987421383,0.23832615816305164
300,403.88524590163934,734.8811475409836,0.2540249698910169
301,404.7113402061856,735.2199312714777,0.2697076122198001
302,405.45104895104896,735.2692307692307,0.2695665283449473
303,406.2508960573477,734.2759856630825,0.29683482241922204
304,407.5753424657534,733.8972602739726,0.3323078144521851
305,408.0367647058823,734.0772058823529,0.3123818083455419
306,408.68835616438355,733.9109589041096,0.3772315938817512
307,409.71,733.145,0.36888033809646076
308,410.4416243654822,732.9847715736041,0.39555427506824137
309,411.03902439024387,733.1902439024391,0.4182961203645756
310,411.92537313432837,732.6716417910447,0.4453463665257352
311,412.4555555555555,732.8703703703703,0.4574644625277748
312,413.58680555555554,731.7777777777778,0.5089984777714002
313,414.1658767772512,731.781990521327,0.490327295709826
314,414.8472906403941,731.2019704433498,0.5483543289482036
315,416.01522842639594,730.6700507614213,0.6066998410161257
316,416.4666666666667,730.2190476190476,0.5781334785772085
317,417.2225806451613,729.7451612903226,0.4345316124147877
318,417.3377049180328,729.255737704918,0.0036285603204032654
319,418.8,728.5952380952381,-0.509911872033957
320,419.37261146496814,727.343949044586,-0.43564794235601967
321,420.16875,727.0875,-0.5111162607261344
322,420.67791411042947,726.2269938650306,-0.36790047569835577
323,421.265625,724.93125,-0.3946134831759673
324,422.4017341040462,724.3930635838151,-0.42718889904147006
325,423.16616314199393,723.6132930513595,-0.36434521882079507
326,423.8666666666667,722.9757575757576,-0.3655504850999104
327,424.64553314121036,721.9884726224784,-0.3500683475852606
328,425.825,722.1,-0.3338862084837917
329,426.48148148148147,721.2478632478633,-0.34240554261624734
330,426.84736842105264,719.8605263157895,-0.3059190888612635
331,428.1842105263158,719.828947368421,-0.29505881689667607
332,428.703081232493,718.7478991596638,-0.29345251613354434
