FrameNo,Row,Column,Angle
76,86.6887417218543,784.1556291390729,-1.3532917922202392
77,88.5,784.2924901185771,-1.3563473583107424
78,91.29038461538461,784.5134615384616,-1.3623286432536987
79,93.10299625468164,784.5337078651685,-1.3579612879134106
80,95.42446043165468,784.7410071942446,-1.3650735462983987
81,97.54202401372213,784.9416809605489,-1.3615921030660074
82,99.44444444444444,785.0132669983416,-1.3650138075440796
83,101.80990415335464,785.185303514377,-1.365471545713212
84,104.09331259720062,785.3390357698289,-1.3662546509573206
85,106.36102719033232,785.5211480362537,-1.370122541983379
86,108.34497816593887,785.4788937409024,-1.3598246170417734
87,110.8221906116643,785.7780938833571,-1.3687213128941813
88,113.10836762688615,785.8930041152263,-1.3684048118975403
89,115.20643431635389,786.0603217158177,-1.3710594503321796
90,117.80595084087969,786.385510996119,-1.3682056014328332
91,119.84517766497461,786.4124365482234,-1.3717799801598152
92,122.07434944237919,786.552664188352,-1.373360907939026
93,124.91955617198336,786.8363384188627,-1.3743020746753205
94,126.6792899408284,786.9715976331361,-1.3800987121196373
95,129.59164420485175,787.1091644204852,-1.3693304664921542
96,132.06216931216932,787.3452380952381,-1.374815765145354
97,134.0325,787.5550000000001,-1.37712984430214
98,136.90421455938696,787.669220945083,-1.3688381117449198
99,138.95910780669146,787.8079306071871,-1.3765487044716609
100,141.2083832335329,788.008383233533,-1.3773598991842095
101,143.61270983213427,788.0947242206234,-1.3767922503931016
102,145.73179190751443,788.2404624277457,-1.3742640935481145
103,148.30102622576968,788.5427594070695,-1.3820154412696044
104,150.69966254218224,788.7019122609673,-1.3791903639349063
105,153.28045977011493,788.7712643678161,-1.3694882433010174
106,155.55022321428572,789.0189732142857,-1.3796931080623809
107,158.61484098939928,789.0247349823321,-1.3574030750638006
108,160.65955056179774,789.1943820224719,-1.3682528702289447
109,162.82532751091702,789.4879912663755,-1.3754609055744376
110,165.1715210355987,789.663430420712,-1.376058105293746
111,167.44656084656083,789.7904761904762,-1.3861197056024233
112,170.2217391304348,789.7934782608695,-1.3715650454866322
113,172.49520766773162,790.0681576144835,-1.3811934679200395
114,174.52057613168725,790.227366255144,-1.3864251964954115
115,176.5190909090909,790.5645454545454,-1.390187412278063
116,179.1880650994575,790.7160940325498,-1.3904170582129574
117,181.45967741935482,790.8951612903226,-1.3921466384812071
118,183.97674418604652,791.0966010733453,-1.3928006991639827
119,186.58488888888888,791.2666666666667,-1.392305870914204
120,188.99467140319717,791.417406749556,-1.397635796351063
121,191.38618246235606,791.5039858281665,-1.4009369654166328
122,193.75421472937,791.7222715173026,-1.3988915891681974
123,196.3887900355872,791.8612099644129,-1.3989332515050568
124,198.83807829181495,791.9866548042704,-1.4008138574773703
125,200.96902654867256,792.1451327433629,-1.4021364118615145
126,203.7881188118812,792.2267326732673,-1.401366618928675
127,207.21428571428572,792.5852878464818,-1.4092037631328833
128,208.84854563691073,792.5015045135406,-1.4025823223148943
129,211.42142857142858,792.6877551020408,-1.4066137119549647
130,213.94268167860798,792.7778915046059,-1.4015314215214456
131,216.4398766700925,792.8715313463515,-1.402013457013504
132,219.0700104493208,792.9728317659352,-1.4019032549929307
133,221.63463569165788,793.0749736008447,-1.4014931216277353
134,224.00422386483632,793.2090813093981,-1.4062785604752028
135,229.6350832266325,793.8758002560819,-1.4182542602520267
136,229.00536480686696,793.431330472103,-1.397337859786638
137,231.68335146898804,793.5223068552775,-1.3923804060055707
138,234.1860718171926,793.620239390642,-1.3978101561816876
139,236.80244173140954,793.7325194228634,-1.3998971780591956
140,239.20331491712707,793.817679558011,-1.4019636766200794
141,241.95017381228274,793.8806488991888,-1.3910704689121924
142,244.19839449541286,794.0435779816514,-1.4007587919097535
143,246.79606025492467,794.0950173812282,-1.3977905321245152
144,249.51187648456056,794.2149643705463,-1.4044210100335932
145,252.03365384615384,794.3629807692307,-1.4034918827907095
146,254.380195599022,794.4523227383863,-1.3998083544045166
147,256.87905236907727,794.5286783042394,-1.398592025011956
148,259.69056603773583,794.714465408805,-1.409186220954562
149,262.0140306122449,794.8188775510204,-1.4068032216137352
150,264.7715404699739,794.8890339425587,-1.4047879310164055
151,267.2151394422311,794.9561752988047,-1.408231615885424
152,270.0712290502793,795.0446927374302,-1.4051201198968852
153,272.32624113475174,795.3037825059101,-1.4121409408002876
154,274.6954933008526,795.4750304506699,-1.4160734848900494
155,277.41718555417185,795.557907845579,-1.418386589996137
156,280.07313997477934,795.7112232030265,-1.4143275340852497
157,282.7390745501285,795.8174807197944,-1.420078674683133
158,285.15159574468083,795.9135638297872,-1.4192977939098825
159,287.6166439290587,796.019099590723,-1.4210433876086688
160,290.26502732240436,796.1871584699454,-1.4246055120903967
161,292.9560283687943,796.2326241134751,-1.4214343777657963
162,295.32842415316645,796.319587628866,-1.4236476234468423
163,298.4503012048193,796.5617469879518,-1.4263139562717544
164,300.4740853658536,796.5213414634146,-1.4297409898890918
165,303.5571428571429,796.884126984127,-1.433607638790461
166,305.87149917627676,796.7726523887974,-1.4279171012149396
167,308.8174061433447,797.0153583617747,-1.4361435576519925
168,311.1385435168739,797.0355239786857,-1.4366352614507234
169,313.95612431444243,797.1151736745886,-1.4349858557667807
170,316.5875706214689,797.3578154425612,-1.4396873250929851
171,319.2696850393701,797.4763779527559,-1.4376382138584627
172,322.44147843942505,797.6899383983573,-1.44325122285952
173,324.59914712153517,797.680170575693,-1.4447410032716448
174,327.4511111111111,797.9933333333333,-1.4486335818071983
175,330.37327188940094,798.0506912442396,-1.4454709041522795
176,333.1292682926829,798.2439024390244,-1.4477935147305925
177,335.25634517766497,798.1827411167512,-1.4510959539860635
178,338.1622340425532,798.4468085106383,-1.4494100414019537
179,341.0664739884393,798.5895953757225,-1.4500321948025567
180,344.8313253012048,798.8734939759036,-1.450774345655392
181,347.69774919614144,799.0192926045016,-1.456178848896538
182,350.78983050847455,799.2338983050847,-1.4577055734094289
183,354.5647482014389,799.5287769784172,-1.456827799198292
184,356.65808823529414,799.6029411764706,-1.4577353230709904
185,359.9169811320755,799.8415094339623,-1.457366686224939
186,362.6875,800.0625,-1.4628506366367326
187,364.86851211072667,800.1833910034602,-1.4631903495787588
188,367.3416149068323,800.3229813664597,-1.4723304193279345
189,369.7289719626168,800.4610591900312,-1.4753544436044488
190,373.056338028169,800.6535211267606,-1.4738900468231606
191,375.8611111111111,800.9305555555555,-1.4769734012112397
192,378.30133333333333,800.9573333333333,-1.4862581386051903
193,380.8545918367347,801.1760204081633,-1.4838135623541204
194,383.1914893617021,801.3144208037825,-1.4861902068689328
195,385.5175644028103,801.4051522248244,-1.4884779372222865
196,388.2774049217002,801.5704697986578,-1.4914457145847648
197,391.28051391862954,801.7580299785867,-1.5021774855323042
198,393.6742268041237,801.9092783505155,-1.502113859667491
199,396.3109756097561,802.1056910569106,-1.5011049410266866
200,398.94980694980694,802.2818532818533,-1.5111860074886825
201,401.8330134357006,802.489443378119,-1.5121850935777021
202,404.9077490774908,802.7361623616237,-1.509669195202553
203,407.1788908765653,802.8497316636851,-1.5167442948549472
204,409.95438596491226,802.9649122807018,-1.5164486105614736
205,412.5829145728643,803.2395309882747,-1.5237328917305661
206,415.01495016611295,803.3471760797343,-1.5271994534491384
207,418.0098684210526,803.4342105263158,-1.525762657171925
208,419.7857142857143,803.7811550151976,-1.5388964402822167
209,423.1641104294479,803.920245398773,-1.5290168808126277
210,425.00423131170663,804.1184767277856,-1.5330038962777437
211,428.134110787172,804.2827988338192,-1.5398971679359805
212,431.42776203966,804.4206798866855,-1.5361777669714982
213,433.7980769230769,804.7239010989011,-1.5437756083062786
214,437.02168021680217,804.7682926829268,-1.5408813899935767
215,439.6357435197817,804.9085948158254,-1.54584749513626
216,442.1848523748395,805.2824133504492,-1.5587350491066694
217,445.2818532818533,805.3436293436293,-1.558237306987395
218,447.72391857506364,805.5190839694657,-1.5606527020687804
219,450.71500000000003,805.79875,-1.5640691521811574
220,453.214371257485,806.022754491018,-1.564307951317493
221,456.26167076167076,806.1388206388207,1.568987047167722
222,458.89600967351873,806.304715840387,1.5626634120669756
223,462.04470588235296,806.5647058823529,1.5647785620277097
224,464.755125284738,806.8451025056947,1.5623941688194292
225,467.39542857142857,807.0217142857143,1.5511997376908384
226,470.02941176470586,807.2635746606335,1.5439572841340015
227,473.10479375696764,807.5819397993312,1.5529260260811542
228,475.6673889490791,807.8093174431202,1.5404000854951763
229,479.2603773584906,807.8729559748427,1.5337258127119684
230,482.56058751529986,808.2203182374541,1.531132953898296
231,484.0752916224815,808.4050901378579,1.5279988359351095
232,489.23106546854945,808.6893453145058,1.5133181843399433
233,491.14126394052045,808.9306071871127,1.5163719771820756
234,493.0142566191446,809.1140529531568,1.5222516365314571
235,497.9547169811321,809.4981132075471,1.4952537169471132
236,498.564128256513,809.5701402805611,1.514442005279195
237,503.72939729397297,809.8683886838868,1.4885169422496536
238,505.2842105263158,810.1391812865497,1.4895852055564223
239,508.88520710059174,810.4603550295858,1.486558842594491
240,511.51885714285714,810.6765714285714,1.4870715355349327
241,512.84375,810.7329545454545,1.4873824350549774
242,516.8462389380531,811.0995575221239,1.47837304704461
243,519.8333333333334,811.31,1.4724437731024798
244,521.6348470806302,811.5653382761816,1.479686300715935
245,524.1476323119778,811.8709377901579,1.4693293355814316
246,527.482320942883,811.8005439709882,1.4679922160665742
247,531.6473799126637,812.4137554585153,1.4490538352514981
248,536.1039260969977,812.3487297921478,1.4604647901669323
249,538.1562156215622,812.9152915291529,1.437645393919948
250,540.9606557377049,813.2010928961748,1.4307519848306738
251,544.6772366930917,813.4496036240091,1.413111273406561
252,547.0883002207505,813.6975717439293,1.4182408739838654
253,548.963906581741,813.9978768577495,1.4219327666907686
254,552.066184074457,814.2978283350569,1.4167259593245858
255,555.610278372591,814.5567451820128,1.4047050440772038
256,557.8328205128205,814.8451282051282,1.4027342692251372
257,561.0092497430627,815.059609455293,1.398568026219467
258,563.309900990099,815.1871287128713,1.404329194895137
259,566.385,815.591,1.3913568973528712
260,568.9454722492698,815.82570593963,1.3998091295394361
261,572.3728813559322,816.185443668993,1.3859196939811922
262,575.0058823529412,816.4127450980392,1.382997701534983
263,578.0406582768635,816.5788964181994,1.3872913733320427
264,580.8506743737958,817.004816955684,1.3722000589414136
265,583.7490458015267,817.2442748091603,1.3778308703428406
266,587.2266800401203,817.679037111334,1.368384099984599
267,589.2882797731569,817.8648393194707,1.3680361304705364
268,592.6736045411542,817.9952696310312,1.3711421229829655
269,595.2989690721649,818.3467666354264,1.3579446276717702
270,599.4869477911647,818.785140562249,1.340533567554214
271,601.6997112608277,819.0250240615977,1.3525994818809854
272,604.8011869436202,819.6191889218595,1.3450571826030706
273,607.6357552581262,819.5047801147227,1.347245534621279
274,610.5004703668861,819.8428974600188,1.3388431001251375
275,613.5499058380415,820.1468926553672,1.3358361188310013
276,616.5915887850467,820.3289719626168,1.3338114457059906
277,619.0081699346405,820.7148692810457,1.3320984139721788
278,622.4241823587711,821.4013875123885,1.332469916500272
279,624.9678217821782,821.2310231023102,1.3225128143850888
280,627.8223684210526,821.5583881578948,1.3099372989235076
281,631.1372226787182,821.7460969597371,1.3111564662309305
282,633.9482902418682,822.0975813177648,1.3054164845867502
283,636.8453947368421,822.469572368421,1.2909661565141148
284,639.9767054908486,822.6405990016639,1.2909032217821146
285,643.1171617161716,822.9529702970297,1.2902502676161187
286,646.0157024793389,823.2793388429752,1.2898788247585204
287,649.2437603993344,823.549084858569,1.2864637175129892
288,672.205035971223,820.6690647482014,1.0769741859182906
289,675.1833910034602,820.6747404844291,1.0706200985909273
290,677.5491525423729,821.2949152542373,1.0738951121306324
291,679.3553459119497,822.1446540880503,1.0837057788350675
292,684.9090909090909,821.0145454545454,1.0569434174094527
293,685.3940397350993,822.4569536423841,1.0815557701002796
294,670.695836873407,825.5097706032285,1.2592554186377385
295,673.6800341296928,825.7576791808874,1.2579701418053622
296,676.7718696397942,825.9382504288164,1.2587298897379222
297,679.6883116883117,826.3038961038961,1.2490161920096494
298,683.0191804707933,826.4899738448125,1.2477699713548311
299,686.0894097222222,826.7230902777778,1.2452244309486387
300,689.0805729632946,826.9776186213071,1.239121332950521
301,692.3024691358024,827.3130511463845,1.2464306715400977
302,695.249557522124,827.612389380531,1.235818197166257
303,698.5198915009041,827.7640144665461,1.2364414465840006
304,701.5346083788706,828.0245901639344,1.2284693721442892
305,704.5863636363637,828.2790909090909,1.224666224834147
306,707.5226641998149,828.5393154486586,1.22927572763832
307,710.7970342910102,828.772937905468,1.2255623593753786
308,713.8993414863594,828.9529633113829,1.2171397799547001
309,717.023923444976,829.1014354066986,1.2159516102673433
310,719.7340425531914,829.4690522243714,1.223118612332436
311,723.2279340446169,829.6537342386033,1.2160558836750037
312,726.3634577603143,829.746561886051,1.2079194973936525
313,729.438950554995,830.0948536831484,1.210765898266044
314,732.3154701718908,830.4802831142568,1.203180591311735
315,735.5693730729702,830.5498458376156,1.2038166018060041
316,738.6477987421383,830.7400419287212,1.2091608810557544
317,741.6871628910463,830.9654800431499,1.2076930387349865
318,745.0877573131095,831.0812567713976,1.210902480458806
319,748.1418994413408,831.2804469273743,1.2036210902278153
320,750.9177001127396,831.6347237880497,1.1990745886471013
321,754.3661327231122,831.6842105263158,1.2022018127072516
322,757.5734597156398,831.7997630331754,1.2047860714449807
323,760.4773809523809,832.1678571428572,1.194335559617611
324,763.8715151515152,832.1466666666666,1.2073853683435887
325,766.8754716981132,832.2150943396226,1.2075787648568719
326,770.3260309278351,832.2461340206186,1.2112957980641736
327,773.5449735449736,832.3412698412699,1.2111741253317205
328,776.4175392670157,832.609947643979,1.2175834520130968
329,779.3203342618384,832.791086350975,1.2145357506349632
330,782.4856361149111,832.9302325581396,1.2197429918779366
331,785.811320754717,833.0058055152394,1.2167334458708945
332,788.660294117647,833.2779411764706,1.215486605327318
333,792.218009478673,833.0489731437599,1.226086676530848
334,795.2564935064935,833.1493506493507,1.2267699725205155
335,798.9414715719064,832.9297658862877,1.2276215261276433
336,802.1989708404802,832.9845626072041,1.2309687993590135
337,804.7312614259598,833.2851919561243,1.2368417029022802
338,808.2431444241316,833.4259597806216,1.2395538398602117
339,811.2960784313725,833.178431372549,1.2477116748731174
340,814.8734693877551,833.0367346938775,1.2519284446050338
341,818.5827814569536,832.8763796909492,1.2564564485838445
342,821.1962174940899,833.0189125295508,1.2559390364475456
343,824.1488833746898,833.0694789081886,1.2712236026970685
344,827.4947643979058,833.0602094240837,1.2710695510297811
345,831.0985915492957,832.7661971830986,1.2771603904250068
346,834.9673590504451,832.5697329376854,1.2870845370817103
347,839.4423676012461,832.2305295950156,1.2955220858298222
348,843.3674911660778,831.8268551236749,1.300618333552476
349,846.5508771929824,831.7789473684211,1.3060403715522526
350,851.1687242798354,831.3703703703703,1.319387874824655
351,853.4966442953021,831.493288590604,1.324132800749991
352,855.4195583596214,831.7003154574132,1.3286369362826667
353,858.9436201780416,831.513353115727,1.3472534988526912
354,861.972602739726,831.4219178082192,1.3555924014985798
355,864.6914893617021,831.436170212766,1.3697406044305587
356,867.953316953317,831.3390663390663,1.3877488246486864
357,869.9927536231884,831.3212560386473,1.3912172676830972
358,873.1002277904328,831.0797266514807,1.4016011989960084
359,876.4625267665953,831.0385438972163,1.4176713675193129
360,879.6707818930041,830.8004115226338,1.4349256490091566
361,881.8934911242603,830.6765285996055,1.4413247269750884
362,884.4944237918215,830.5297397769517,1.450197175008156
363,887.7024482109227,830.1996233521658,1.4700398140777764
364,891.3147826086956,829.9147826086956,1.4855243775100981
365,894.3224699828473,829.6672384219554,1.5071659715649317
366,897.0593080724876,829.5518945634267,1.514411990237001
367,900.2273449920509,829.1367249602544,1.535206725461782
368,903.031626506024,828.9548192771084,1.5537224674188672
369,906.1585903083701,828.5785609397944,1.568009290334124
370,909.3920454545455,828.1576704545455,-1.5531483484850694
371,912.4141274238227,827.8227146814404,-1.5413184483806697
372,915.514745308311,827.5107238605898,-1.5176376055085155
373,918.5564304461942,827.0958005249344,-1.4990520335228328
374,921.4725,826.65,-1.4743366648218055
375,924.8669108669109,826.2185592185592,-1.4590921883913315
376,927.9643281807372,825.8525564803805,-1.4371382754971593
377,930.6854460093897,825.3967136150235,-1.4118056659154594
378,934.0930760499432,824.9693530079455,-1.3917424078022813
379,938.7906040268456,824.6322147651007,-1.3528115876608038
380,941.7532637075718,824.079634464752,-1.3244553770946559
381,945.5874316939891,823.3715846994536,-1.2680837250642052
382,947.9962593516209,823.1122194513716,-1.2715214330086124
383,951.9456662354463,822.6765847347995,-1.2316787250023409
384,954.5137844611529,822.0839598997494,-1.2208826442523946
385,958.4827586206897,821.8263090676884,-1.181039783783733
386,964.998475609756,822.060975609756,-1.1207556111481713
387,963.5857307249712,820.385500575374,-1.141643566360473
388,967.5317073170731,819.8048780487804,-1.097025928050566
389,969.828178694158,819.205040091638,-1.0999848286856524
390,982.4712389380531,821.1283185840708,-0.9269675927672618
391,979.2983425414365,819.707182320442,-1.062969254030349
392,985.8873483535529,819.8890814558059,-0.9245186222333632
393,990.3133208255159,820.2589118198874,-0.8959599376915074
394,990.0398230088496,818.5383480825959,-0.9229125557619245
395,995.0607028753993,819.6230031948882,-0.9199347926826668
396,990.3821399839098,814.9613837489944,-0.9703249144819975
397,1001.3415435139573,818.431855500821,-0.8410347059570922
398,967.5,914.5,-0.7853981633974483
399,882.0,996.0,0.7853981633974483
400,893.5,1078.0,-1.5707963267948966
401,930.0,1108.0,0.7853981633974483
402,878.0,1105.0,0.7853981633974483
403,874.5,1158.0,-1.5707963267948966
404,798.6792452830189,1158.8301886792453,0.42811222330259874
405,882.0,1126.0,0.7853981633974483
