FrameNo,Row,Column,Angle
121,34.690821256038646,871.9855072463768,-0.05411849405423304
122,35.13247863247863,867.7008547008547,-0.06371697740219838
123,35.6133909287257,867.8920086393089,-0.06395872749922592
124,36.487584650112865,867.2595936794582,-0.07274356667076792
125,36.86335403726708,867.1345755693582,-0.0641896942356811
126,37.59834368530021,866.9503105590062,-0.07690356667451843
127,38.082589285714285,867.1830357142857,-0.0782613963236643
128,38.58913043478261,866.4260869565218,-0.07786429061399794
129,39.12453531598513,867.042750929368,-0.08203542533096055
130,39.62015503875969,864.4341085271318,-0.09389158474848784
131,40.278688524590166,865.9631147540983,-0.0922148016454192
132,40.97090909090909,865.4709090909091,-0.09920159594555554
133,41.266536964980546,865.3540856031128,-0.0917747688777718
134,41.87068965517241,865.5931034482759,-0.09998825174339168
135,42.34437086092715,864.4122516556291,-0.10313267662510014
136,42.82897033158813,864.2687609075043,-0.10615911814480336
137,43.492537313432834,864.1077943615257,-0.10778506418677158
138,44.050092764378476,864.330241187384,-0.11454345332568316
139,44.58139534883721,864.134168157424,-0.1194865682345094
140,45.189014539579965,864.0904684975767,-0.12365966341902755
141,45.50776397515528,863.138198757764,-0.12411618599628255
142,46.134052388289675,863.517719568567,-0.12690525565979488
143,46.91317829457364,863.8852713178295,-0.1353673033456971
144,47.23216995447648,863.2124430955994,-0.14993270524420668
145,47.793304221251816,864.2372634643377,-0.13847984574762426
146,48.49548192771084,864.2018072289156,-0.15010954877210833
147,48.867952522255194,863.6290801186943,-0.15109918414066617
148,49.631736526946106,864.061377245509,-0.15804636959856194
149,50.00864553314121,863.2737752161383,-0.16509447698786223
150,50.637517630465446,864.2172073342737,-0.16484907269262628
151,51.1878612716763,864.0664739884393,-0.16632037565731742
152,51.537142857142854,863.3642857142858,-0.1756165747659804
153,52.07769784172662,863.3611510791367,-0.18146693436119804
154,52.68500687757909,863.678129298487,-0.18893950549982172
155,53.11522633744856,863.363511659808,-0.1937417898860656
156,53.81084840055633,864.0653685674548,-0.19499324173253318
157,54.395890410958906,864.286301369863,-0.2056068770924705
158,54.78610354223433,863.9237057220708,-0.2119375540263525
159,55.20634920634921,863.7169312169312,-0.21455745119072522
160,56.009433962264154,865.0471698113207,-0.22208151104834922
161,56.34914361001317,864.4558629776021,-0.2347268184892762
162,56.94102228047182,863.8558322411534,-0.23042332495769943
163,57.50330250990753,864.2377807133421,-0.23369509655877996
164,58.22312925170068,865.4367346938775,-0.2434173373082625
165,58.51910408432148,864.7865612648221,-0.24732519867151148
166,58.921542553191486,864.6529255319149,-0.2547553718406471
167,59.67371202113606,864.9867899603698,-0.2730457883520722
168,59.94881889763779,864.3372703412074,-0.2763408031434622
169,60.98234552332913,866.4615384615385,-0.29061336423228584
170,61.052287581699346,865.4143790849673,-0.2891311278003828
171,61.59947984395318,865.1586475942782,-0.2962193668703845
172,62.16031537450723,865.7030223390276,-0.30760125730793764
173,62.96696315120712,866.87166454892,-0.3100292909057338
174,63.22088353413655,865.8393574297189,-0.3337959051739759
175,63.80544747081712,866.5719844357976,-0.3422942679431801
176,64.44342105263158,866.7486842105263,-0.3529438687455488
177,64.90673575129534,866.9391191709844,-0.36443764703961423
178,65.28777923784494,866.9632063074902,-0.37249535844541404
179,66.08408796895213,867.9275549805951,-0.38527454507806214
180,66.43709468223086,867.514915693904,-0.40276204605217514
181,67.05981794538361,868.075422626788,-0.41048810492096344
182,67.63777490297542,868.4243208279431,-0.4262220383242311
183,68.1082474226804,868.770618556701,-0.43288959055548976
184,68.55989583333333,869.1549479166666,-0.4446651197195277
185,69.19127086007703,869.9987163029525,-0.4440982464183691
186,69.57786357786358,869.5701415701416,-0.49400268558286375
187,70.07554417413573,869.8629961587708,-0.4991898299497723
188,70.55172413793103,870.176245210728,-0.5208556438899414
189,71.22584856396867,870.2728459530026,-0.5433872738011338
190,71.64928292046936,870.7014341590613,-0.5580834146215209
191,72.43556701030928,871.5399484536083,-0.582699953875295
192,72.50255754475704,871.5805626598466,-0.5980667312698357
193,73.20472440944881,871.8648293963255,-0.6256743486013769
194,73.90944372574386,872.5084087968952,-0.6450405887351737
195,73.98961038961039,872.6857142857143,-0.6753115289462254
196,74.75549805950841,873.2884864165588,-0.6688606433910214
197,74.98291721419186,873.5479632063075,-0.7302898371047735
198,75.89884763124199,874.3316261203586,-0.7475553915942702
199,76.15057915057915,874.5534105534106,-0.7936273038715088
200,77.13229571984436,875.1258106355383,-0.8345141286918406
201,77.22279792746114,875.5349740932643,-0.8841589835209871
202,77.85494223363287,876.1116816431322,-0.9003309354121855
203,78.65331664580727,876.7596996245306,-0.9700271684026673
204,78.84912718204488,877.1022443890274,-1.0695401396981945
205,79.437578814628,877.7906683480454,-1.1915507741757492
206,79.88089330024813,878.409429280397,-1.3690441206997925
207,80.4311814859927,879.1047503045068,1.5230634443984588
208,80.86198243412798,879.4341279799247,1.2838221368258935
209,81.28402366863905,880.7455621301775,0.9810833139191842
210,90.17299578059071,882.675105485232,0.7449920225019602
211,82.59738717339667,881.7589073634205,0.9010512371731393
212,91.90045248868778,882.4570135746607,0.6570330377340643
213,95.11494252873563,879.1781609195402,0.32386528855751523
214,95.10344827586206,880.1264367816092,0.397310916991899
215,93.45798319327731,882.6890756302521,0.5919162594619293
216,94.90783410138249,881.6589861751152,0.5092304568706386
217,94.30830039525692,883.3794466403162,0.5559211222176644
218,95.47950819672131,882.7418032786885,0.5179139384890757
219,93.21527777777777,886.7847222222222,0.5510201549607164
220,96.56846473029046,882.9585062240664,0.4663937932431191
221,96.12267657992565,884.7657992565056,0.48491596357706174
222,98.43867924528301,881.9481132075472,0.4262011340015778
223,98.83636363636364,882.2954545454545,0.4166570330902928
224,99.46261682242991,882.2943925233644,0.4043193286443363
225,97.265780730897,887.9634551495017,0.4356293528733747
226,100.0524193548387,883.6854838709678,0.39512108504686755
227,98.33779264214047,888.8829431438127,0.4051937000869302
228,102.02415458937197,882.024154589372,0.3470727724605851
229,102.22317596566523,883.1072961373391,0.3493833384852977
230,103.2420091324201,881.9178082191781,0.32695462066157355
231,100.81288343558282,889.9478527607362,0.3569366688328723
232,105.4074074074074,879.6772486772487,0.284996486626897
233,104.57264957264957,883.6495726495726,0.30321878886243103
234,105.16597510373444,883.3651452282157,0.29823221801072175
235,103.08653846153847,891.3653846153846,0.3114873528367178
236,106.48672566371681,883.3982300884956,0.28182384181293085
237,104.3914373088685,891.9633027522935,0.2961801404145815
238,107.32793522267207,884.9311740890688,0.26806985021806057
239,108.1470588235294,884.5042016806723,0.26887477249936403
240,108.22047244094489,886.2362204724409,0.2580735613311161
241,109.25321888412017,884.9399141630902,0.2522141979020887
242,110.22325581395349,883.3162790697675,0.23401272734723652
243,110.33467741935483,885.8225806451613,0.24175337539066505
244,111.10084033613445,885.3487394957983,0.23564413421987665
245,109.44557823129252,894.1938775510204,0.22898730859166483
246,114.1526717557252,876.7786259541984,0.1642382459393709
247,114.85833333333333,876.3416666666667,0.1574522713726032
248,113.7487922705314,884.536231884058,0.2007610659286081
249,107.56939890710383,903.5693989071038,0.24696101238927406
250,112.27301587301588,896.8126984126984,0.20547411075556749
251,108.6885593220339,904.6684322033898,0.23575392428988515
252,117.00675675675676,880.3851351351351,0.1590046792622577
253,118.02290076335878,878.145038167939,0.1352407344626875
254,111.24859392575928,904.4926884139483,0.22877791234094705
255,117.83644859813084,885.6822429906542,0.17343793846237548
256,118.31100478468899,886.5119617224881,0.17813270021626912
257,120.5702479338843,877.4462809917355,0.12638990672686684
258,114.13741339491916,905.9769053117783,0.20518365534317232
259,115.07488479262673,905.5230414746544,0.197848760643847
260,115.75329341317365,905.459880239521,0.20018162693902272
261,116.43012048192772,906.0903614457832,0.19760918222798118
262,116.95289855072464,906.4698067632851,0.1934503792827321
263,117.96882793017457,906.1359102244389,0.18788367621456134
264,118.77596996245306,906.1551939924906,0.1843782281723893
265,119.50801479654747,906.3563501849568,0.1773361581215098
266,120.25753768844221,906.4359296482412,0.1741770323968844
267,121.09032258064516,906.0387096774193,0.17420254416414194
268,121.71090670170828,905.9855453350854,0.15945074233129736
269,122.54021447721179,905.9061662198392,0.16211533361140737
270,123.02263083451203,906.3663366336634,0.16167178205267424
271,123.85794655414908,905.9099859353024,0.16114571371413258
272,124.53878702397743,906.0535966149506,0.15871555310276503
273,125.37880986937591,905.7387518142235,0.15437877334976421
274,126.85609756097561,900.6439024390244,0.1547561339551785
275,126.9777117384844,905.3462109955424,0.14087761040128247
276,128.08252427184465,902.5388349514564,0.14705527754635306
277,128.58705701078583,904.9645608628659,0.12884689866782983
278,129.3067993366501,904.441127694859,0.13316896448695495
279,130.05960264900662,904.4056291390729,0.13558134191371238
280,130.60661157024794,904.3487603305786,0.13685810260947792
281,131.72804054054055,903.8108108108108,0.12907593789399976
282,132.2418772563177,902.9855595667871,0.12810283476758683
283,132.84560143626572,903.1184919210054,0.13074810554214372
284,133.77513711151738,902.8336380255942,0.12469852755981298
285,134.81439393939394,901.0416666666666,0.11440950301302034
286,135.45882352941175,900.821568627451,0.11490343492965369
287,136.21862348178138,899.8744939271255,0.11102787024290285
288,136.82489451476795,900.253164556962,0.10275977914189642
289,137.4708423326134,900.1598272138228,0.11650169139907242
290,136.98275862068965,910.0804597701149,0.11950100572712678
291,138.85682326621924,898.7114093959732,0.11822140514291021
292,138.20945945945945,909.9527027027027,0.12976799058761732
293,139.18243243243245,908.75,0.1237959074210371
294,141.1362467866324,897.7352185089974,0.11626547126486261
295,140.51968503937007,909.0787401574803,0.11647138990618144
296,142.31283422459893,897.3422459893048,0.10274080162847829
297,141.92222222222222,908.2888888888889,0.07727582063499447
298,144.04481792717087,895.3417366946778,0.10095205247302447
299,144.86666666666667,894.8840579710145,0.09897374211193356
300,147.02702702702703,877.9054054054054,-0.011779026638506239
301,146.12974683544303,894.7183544303798,0.09039390035281684
302,146.9318181818182,894.3246753246754,0.09102918926637217
303,147.63703703703703,893.1074074074074,0.08810565419035299
304,148.33105802047783,893.1296928327645,0.11161936908242757
305,148.93548387096774,892.125,0.0897400141823327
306,149.6046511627907,891.2232558139535,0.08181088716277474
307,150.30769230769232,891.7058823529412,0.08501685679542417
308,150.98591549295776,890.924882629108,0.08386541672475183
309,151.68965517241378,889.6551724137931,0.08239231360649321
310,153.02608695652174,882.695652173913,-0.049734275978941915
311,153.71186440677968,883.271186440678,-0.05339047983589244
312,154.19827586206895,883.8793103448276,-0.0537056105537395
313,154.89565217391305,883.8608695652174,-0.061754383254455696
314,155.54166666666669,884.45,-0.07229572153408766
315,155.8923076923077,885.8461538461538,-0.015328221629059103
316,156.5503875968992,886.4263565891473,-0.011070841453189723
317,157.14492753623188,887.2753623188406,0.014030750589473784
318,157.5125,888.93125,0.056329016379621344
319,158.36153846153846,887.2153846153847,0.005946618461369106
320,158.82269503546098,887.4468085106383,-0.007155433963796904
321,159.37735849056605,887.6100628930817,0.024978288583643905
322,159.98757763975155,886.583850931677,-0.007212698327288783
323,160.47486033519553,886.1061452513967,-0.003362536615117043
324,161.14754098360658,885.3770491803278,-0.021312081811295448
325,161.89947089947088,884.7248677248677,-0.03989744688597923
326,162.25136612021856,884.0382513661202,-0.049774219801866214
327,163.07860262008734,883.3973799126637,-0.04531898500555863
328,163.7810218978102,886.6569343065694,-0.0936776662820115
329,164.31553398058253,881.9126213592233,-0.050733138958298174
330,164.94174757281553,881.7621359223301,-0.062183145216982205
331,165.67105263157896,881.061403508772,-0.07487571420506564
332,165.88412017167383,880.3862660944206,-0.07497750689164889
333,166.589519650655,880.1659388646289,-0.07635905865874403
334,167.26436781609195,878.0727969348659,-0.06950401695100161
335,167.61157024793388,878.6157024793388,-0.0758960377936998
336,168.3320158102767,878.2332015810276,-0.08684775701218017
337,168.8714859437751,878.0200803212851,-0.09580076845972361
338,169.69333333333333,877.3,-0.0792178138957318
339,170.125,877.5454545454545,-0.08552615275518123
340,170.64596273291926,876.1583850931677,-0.0863066997319872
341,171.29830508474578,877.4949152542373,-0.08871859515609946
342,171.82005899705015,873.8790560471977,-0.08468060275887064
343,172.48726114649682,875.4617834394904,-0.09007590453767819
344,172.92523364485982,875.214953271028,-0.09093535708994578
345,173.375,873.6829268292684,-0.08881978348299914
346,174.02518891687657,873.7682619647355,-0.09901469375507056
347,174.6657060518732,873.7838616714697,-0.10080538677451997
348,175.2721893491124,874.5650887573964,-0.10613223014590852
349,175.88221153846155,873.2043269230769,-0.10950925792288194
350,176.25495750708217,872.5042492917847,-0.10450245757282914
351,176.76819407008088,872.5714285714286,-0.11114021350349318
352,177.48387096774195,871.1774193548387,-0.10782988156293037
353,177.9212598425197,871.8241469816273,-0.11391596401468185
354,178.5625,871.4505208333334,-0.1188006426572074
355,179.0547263681592,871.3557213930349,-0.11570929770031195
356,179.693094629156,871.2506393861893,-0.12290126739907653
357,180.21411192214111,871.3333333333334,-0.11869591459329687
358,180.65087281795513,870.9127182044888,-0.1241417473856801
359,181.34532374100718,870.4388489208633,-0.1287754075589945
360,181.86279069767443,870.560465116279,-0.1336407918194401
361,182.10755148741418,868.9427917620137,-0.13254255486698427
362,182.82027649769586,869.463133640553,-0.12944340269644772
363,183.43478260869566,869.5148741418765,-0.1366297679449769
364,184.06053811659194,869.713004484305,-0.13853019088006913
365,184.5291576673866,869.0777537796977,-0.14239217495160505
366,185.33783783783784,870.8108108108108,-0.14455805338757993
367,185.50851063829788,868.1744680851064,-0.1515628328710067
368,186.1795407098121,868.5469728601253,-0.15267506050239704
369,186.87695749440718,870.0313199105145,-0.15813613586502903
370,187.31808731808732,869.2328482328483,-0.15916479347008453
371,187.9390243902439,868.9085365853658,-0.16417328844243717
372,188.62040816326532,869.8326530612245,-0.16859418976791546
373,189.0216962524655,868.9408284023668,-0.16967141543797842
374,189.64457831325302,869.4136546184739,-0.1727048456727001
375,190.2268244575937,869.1538461538462,-0.179678968252956
376,190.71814671814673,869.073359073359,-0.18241851470514872
377,190.9488926746167,867.4701873935264,-0.18909823529259082
378,191.67120954003406,867.9097103918228,-0.18736932598214556
379,192.5159010600707,869.4187279151944,-0.19806585649015634
380,192.88619402985074,868.8917910447761,-0.19613080099785524
381,193.47826086956522,869.0018903591682,-0.20164533695070083
382,193.92434210526318,868.8717105263158,-0.21053158703032682
383,194.54380165289257,868.3735537190082,-0.211996187910755
384,195.3977900552486,870.0828729281768,-0.21889387883444322
385,195.6224832214765,868.7533557046979,-0.22121441539563963
386,196.13787375415282,868.9269102990033,-0.22158802053965695
387,197.01077199281866,869.8114901256732,-0.22940324913495233
388,197.24222585924713,869.0589198036007,-0.24230639645688953
389,197.95529801324503,869.5496688741722,-0.23874985320992717
390,198.54253611556982,869.5842696629213,-0.25412888797001615
391,199.14192495921696,870.2120717781403,-0.25178903961501914
392,199.60526315789474,870.1315789473684,-0.25987808050305544
393,200.35399673735725,870.6476345840131,-0.2698541214366098
394,200.74880763116056,870.1176470588235,-0.2659679617807482
395,201.12145110410094,869.7839116719243,-0.2770244505216433
396,201.967585089141,871.2868719611021,-0.2809793126801604
397,202.33386327503973,870.7329093799682,-0.2981403706969253
398,202.90306946688207,871.1001615508885,-0.2957786300520445
399,203.69243156199678,871.6988727858293,-0.3056521125206856
400,203.90542635658915,871.0868217054264,-0.3164982367175612
401,204.84037558685446,872.001564945227,-0.31679945385397595
402,205.27564102564102,871.8509615384615,-0.33145989804973247
403,205.76117103235748,871.9152542372881,-0.33617548371855865
404,206.2100313479624,871.7100313479624,-0.34716125965786093
405,206.6688,872.336,-0.3659297378771932
406,207.34214618973562,872.4727838258165,-0.37974111506125613
407,208.00759878419453,873.063829787234,-0.37425374756624824
408,208.32634730538922,873.5149700598803,-0.40066763976671343
409,209.16513761467888,873.434250764526,-0.40874756731667833
410,209.35356600910472,873.3581183611533,-0.4163419536813729
411,210.34036144578312,874.3448795180723,-0.4135039703229736
412,210.8247261345853,874.2488262910798,-0.43025557115729296
413,211.36186186186188,874.4009009009009,-0.44162941500437375
414,211.86453576864534,874.9558599695586,-0.46488030823051957
415,212.55834564254062,875.1388478581979,-0.4880722016311447
416,212.96825396825398,875.3507936507937,-0.4889755583622025
417,213.62537764350452,875.892749244713,-0.4966703939524579
418,213.7407975460123,875.9877300613497,-0.5260072563955092
419,215.31612903225806,878.4688172043011,-0.5628089913828582
420,215.1494768310912,876.9118086696562,-0.5608109180873592
421,215.9439393939394,877.3212121212122,-0.5721789996990962
422,216.047256097561,877.5716463414634,-0.581520914602936
423,216.97757847533632,878.1718983557548,-0.6302508704433673
424,217.5076923076923,878.6876923076923,-0.6342155905551249
425,218.0439393939394,879.0575757575757,-0.6475628889243172
426,218.6909090909091,879.3636363636364,-0.6626437953897863
427,219.370802919708,880.1722627737227,-0.7216330115266696
428,219.57100591715977,880.2100591715977,-0.7096510361925757
429,220.04418262150222,880.5508100147275,-0.7146620280888046
430,220.84649776453057,881.2250372578242,-0.8057502768576457
431,221.30758017492712,881.8600583090379,-0.7928116128420315
432,221.57431457431457,882.2453102453103,-0.8105818587730937
433,222.7389443651926,883.0798858773181,-0.9790265196213561
434,223.24418604651163,883.8662790697674,-0.8213356774934434
435,223.6505681818182,884.1832386363636,0.3422570354422928
436,224.12570621468927,884.9293785310734,0.4807902526804121
437,224.98448519040903,885.7404795486601,0.5992725736264265
438,225.57025920873124,886.462482946794,0.59239295322503
439,226.06694560669456,887.1952580195258,0.5355227955897495
440,226.6412005457026,887.5034106412005,0.5376124725726094
441,227.3950276243094,888.4267955801105,0.5315144158730424
442,231.69677419354838,891.4,0.6050884162883416
443,228.83827493261455,889.7587601078167,0.48597796028305035
444,229.28360215053763,890.5604838709678,0.4867402558400064
445,236.60476190476192,888.3095238095239,0.4280397886979455
446,230.8203434610304,891.676354029062,0.4816503299356941
