FrameNo,Row,Column,Angle
60,12.725078698845751,636.2486883525709,0.221243361724062
61,21.51372549019608,614.278431372549,0.09241410880112526
62,16.75077399380805,636.5913312693499,0.197700631928619
63,18.82348305752561,636.4334121355398,0.19314732482136152
64,20.764612954186415,636.8301737756714,0.17747201525949377
65,22.805132317562148,636.4073777064956,0.16436772691404167
66,24.632838283828384,637.1559405940594,0.150887908316403
67,26.74692874692875,637.1449631449632,0.149000945385611
68,28.517094017094017,636.8931623931624,0.1376356718230493
69,30.647540983606557,636.222131147541,0.14877159387181027
70,32.41166077738516,636.893109540636,0.12635494550517137
71,34.26151172893137,636.4100781928757,0.11973145767986738
72,35.84814814814815,636.7314814814815,0.12192771714858905
73,37.8893023255814,636.7962790697675,0.0965423856827839
74,39.82135922330097,636.4223300970874,0.101612372429479
75,41.409695817490494,635.6473384030419,0.0946281721223091
76,43.55544554455445,635.5683168316832,0.07447141149087669
77,45.013251783893985,634.861365953109,0.08772839015096862
78,47.08792372881356,634.3516949152543,0.08300174870199459
79,48.67978723404255,634.1585106382979,0.08918017703912941
80,50.42068965517242,633.6011494252873,0.07942101143451907
81,52.573991031390136,631.640134529148,0.10084046328684601
82,54.047322540473225,632.4321295143213,0.06260391190323636
83,56.188585607940446,629.3796526054591,0.05282425712543138
84,57.29959514170041,631.6734143049932,0.06817625735675063
85,59.038406827880515,631.2844950213371,0.05739524510174496
86,61.05307262569833,628.6871508379888,0.04119716123470043
87,62.62691131498471,628.0948012232416,0.04740440381129287
88,64.42268041237114,625.8350515463917,0.038699570350299244
89,65.96575342465754,626.5890410958904,0.044710254423516255
90,67.96551724137932,609.3103448275862,0.11669424700484649
91,69.17991631799163,624.5146443514644,0.04784208773956604
92,71.0875,610.05,0.14000042191456666
93,72.5576923076923,622.4375,0.03278170526215538
94,73.6,625.0114285714286,0.08146060719164919
95,75.08150470219435,623.6802507836991,0.07494840872633458
96,76.83006535947712,623.3006535947712,0.10661546324157442
97,78.85987261146497,619.0191082802548,0.06186986939877986
98,79.62605042016807,621.2563025210084,0.10943288419126623
99,82.06976744186046,616.8217054263566,0.08729245381009865
100,83.52413793103449,617.1241379310345,0.10512115580641851
101,85.35416666666667,616.2013888888889,0.11834450597188706
102,86.5,617.4941176470588,0.12298502612244126
103,87.71612903225807,619.0451612903225,0.1555110886103318
104,89.40314136125654,618.4293193717277,0.15749174442948363
105,90.47029702970298,617.6584158415842,0.11717741113305037
106,92.13744075829383,616.9905213270142,0.06408096648890267
107,93.31799163179916,615.5523012552301,-0.0038053387058282206
108,94.59160305343511,614.5992366412214,-0.005482110405490787
109,96.13829787234043,613.8617021276596,-0.056943056299648465
110,97.34146341463415,612.8885017421603,-0.06052318081872702
111,98.9875,612.396875,-0.10860128168424729
112,100.09941520467837,611.3040935672515,-0.11873860026363048
113,101.61206896551724,610.7988505747127,-0.1276738234956278
114,102.71010638297872,609.313829787234,-0.14304676656769166
115,103.82731958762886,608.5463917525773,-0.14903916393888203
116,105.20309050772627,607.60706401766,-0.17663271698224395
117,106.33974358974359,606.6217948717949,-0.17636856291350578
118,107.93253012048193,606.2626506024096,-0.1741720913986323
119,111.92198581560284,615.5602836879433,-0.19851723441857413
120,111.285140562249,605.4899598393574,-0.19515296822923722
121,113.56459330143541,609.9473684210526,-0.2077787553410479
122,112.78586723768737,602.5631691648822,-0.20652445272608966
123,113.96405919661734,601.8456659619451,-0.20600821621475948
124,115.15032679738562,601.3333333333334,-0.21066858104542663
125,116.45283018867924,600.8658280922432,-0.21929659904327678
126,117.63564356435644,600.1584158415842,-0.22156395521238467
127,118.93388429752066,599.8326446280992,-0.22668417092301132
128,120.17154811715481,598.9351464435147,-0.23163207121385854
129,121.41286307053942,598.8029045643153,-0.23739720257780564
130,122.70186335403727,598.5714285714286,-0.2427314712270856
131,123.7469387755102,597.7244897959183,-0.24565344231391323
132,125.34745762711864,598.0932203389831,-0.25450838771107653
133,126.97872340425532,599.3498817966903,-0.2587230809218459
134,127.59910913140311,597.1915367483297,-0.264025694260498
135,128.81466395112017,596.7331975560081,-0.27030921941988756
136,130.2283105022831,597.3538812785388,-0.27453328525071935
137,132.2290076335878,599.8880407124682,-0.28182193122379356
138,133.20276497695852,599.1059907834101,-0.28484679409300256
139,135.0418848167539,600.7329842931937,-0.2931819292742232
140,135.43249427917618,598.1670480549199,-0.29766342914450855
141,136.9497487437186,598.6733668341708,-0.3005813637658504
142,138.383631713555,599.3273657289003,-0.31178498374386227
143,139.1161616161616,598.2146464646464,-0.31195329238160124
144,140.47549019607843,598.6519607843137,-0.3243376065266141
145,141.43859649122805,597.7982456140351,-0.3363144174541812
146,142.65795206971677,598.313725490196,-0.34010681736683623
147,143.79058823529414,598.3270588235295,-0.3478004929926436
148,144.73894736842107,597.7010526315789,-0.36202408499320976
149,146.286836935167,598.4066797642436,-0.372535143410358
150,147.42769857433808,598.5050916496945,-0.37822453057946365
151,148.546875,598.466796875,-0.39375366230224407
152,149.95303326810176,599.2974559686888,-0.4002927399790808
153,150.90129449838187,599.4401294498382,-0.42386885358688287
154,152.20987654320987,599.4027777777778,-0.43363014213891016
155,153.14954682779455,599.8655589123867,-0.4458005549994788
156,154.6273291925466,600.3835403726708,-0.46945352434671483
157,156.11596385542168,601.0677710843373,-0.47735245378710794
158,157.10681114551085,601.6191950464396,-0.48641859776502
159,158.42598187311177,601.546827794562,-0.5116385471852165
160,159.50232558139535,602.1023255813953,-0.521537990266092
161,160.71069182389937,602.4716981132076,-0.552642924829165
162,161.78428351309708,602.6640986132511,-0.5822623122826776
163,162.92716236722305,603.3247344461305,-0.6115602507360604
164,164.52380952380952,604.2127976190476,-0.6365788965550699
165,165.4663677130045,604.609865470852,-0.6649401720653904
166,166.89037037037036,605.565925925926,-0.6938729220358542
167,168.04558823529413,606.1044117647059,-0.7389854825044497
168,168.48373408769447,606.5035360678925,-0.7806151643923195
169,170.20749279538904,607.5259365994236,-0.8023768796431484
170,171.67826086956524,608.1492753623188,-0.8307243611898181
171,173.04597701149424,609.278735632184,-0.864107509118379
172,174.20365168539325,609.6011235955057,-0.9409205082238875
173,175.08672086720867,610.730352303523,-1.0166308344592268
174,176.26709677419353,611.5303225806451,-1.0610846004603869
175,177.81770833333331,612.8294270833334,0.584985720667177
176,179.11818181818182,613.7584415584415,0.5130705026517924
177,180.32372214941023,615.4036697247707,0.5687024193737796
178,181.7741116751269,615.8312182741117,0.4785423989385722
179,183.08603491271822,616.9239401496259,0.47977767646511765
180,184.48816936488168,618.0410958904109,0.4431816980506643
181,185.61771844660194,619.4065533980582,0.43293641279689743
182,193.0684410646388,615.8783269961978,0.33010837072520866
183,188.28287841191067,621.5074441687345,0.3694667707916515
184,189.69642857142856,622.0916666666667,0.34284748177171687
185,190.8253223915592,623.7878077373974,0.3427208521373162
186,192.3860072376357,624.45958986731,0.30570823192176627
187,199.75124378109453,614.1890547263681,0.18190160197583477
188,194.94042056074767,626.2453271028037,0.2696077655579494
189,196.53077816492453,626.9221835075493,0.26068289567010305
190,197.64366515837105,627.9966063348417,0.2546466058474268
191,199.03542857142855,628.664,0.24408279307465983
192,204.9264069264069,616.982683982684,0.18186031609311398
193,205.87951807228916,618.2128514056225,0.17064910722478563
194,203.04773561811504,630.9424724602203,0.1880164693870196
195,204.26762246117084,631.0776583034648,0.18944331787050508
196,205.74268292682927,631.0780487804878,0.17497289956045958
197,206.71952662721895,632.7526627218934,0.1752949958574823
198,208.2643391521197,632.7219451371571,0.15613028245293836
199,209.4245614035088,632.3590643274854,0.13378018481337098
200,210.7017766497462,634.2093908629441,0.1520319439624708
201,211.93044619422574,634.0853018372703,0.1381632652624241
202,213.15961800818553,634.75034106412,0.1380536846274986
203,218.6521739130435,609.2608695652174,0.046518648136277437
204,215.84268125854993,634.3378932968536,0.13271290252873325
205,218.0893371757925,631.193083573487,0.11294923366014249
206,222.109756097561,604.1951219512196,0.09408925654150573
207,220.4513274336283,630.2182890855457,0.10448558142896927
208,221.90635451505017,628.0969899665552,0.10019620380236137
209,221.88315629742033,634.5053110773899,0.09527065663494551
210,223.10862619808307,634.2507987220447,0.10882284936591087
211,224.1350906095552,634.6112026359143,0.10637159897639048
212,224.53921568627453,641.8921568627451,0.1080832683433047
213,226.7117750439367,633.2021089630931,0.09922496602248827
214,227.71428571428572,631.8195488721805,0.10547380912446615
215,228.98710865561694,632.4732965009208,0.10359152963297488
216,230.09069212410503,631.5369928400954,0.10283271340588415
217,231.16372795969772,631.7506297229219,0.10755400328278998
218,232.44235924932974,630.4584450402144,0.1087852047867787
219,233.43513513513514,629.8621621621621,0.10794347933418762
220,234.71387283236993,628.679190751445,0.10976733885817237
221,235.73248407643314,628.7324840764331,0.11732789246398061
222,236.81072555205049,626.8864353312302,0.11758891044519998
223,238.01967213114756,626.1737704918032,0.11928411308679787
224,239.04181184668988,625.780487804878,0.12767429852883774
225,240.29056603773586,624.2679245283019,0.12644342203068573
226,241.15438596491228,624.4140350877193,0.11948125059027574
227,242.2080291970803,623.9890510948906,0.13202256829942755
228,243.19565217391306,623.177536231884,0.13520842571555433
229,244.33079847908743,622.722433460076,0.14326979915849747
230,245.3181818181818,621.6590909090909,0.14511110337523647
231,247.03846153846155,617.9835164835165,0.1733328726489482
232,247.6217616580311,619.9274611398964,0.19405400889931515
233,248.4731707317073,620.5073170731707,0.19723949177750094
234,249.44285714285712,620.2380952380952,0.206727246701424
235,250.3653846153846,619.9903846153846,0.21324916373351535
236,251.58152173913044,618.2608695652174,0.24787915684068937
237,252.390625,618.5572916666666,0.22996409916317956
238,253.60555555555555,617.0444444444445,0.25368994443414383
239,254.3478260869565,617.3858695652174,0.2476047949233325
240,255.36158192090397,616.5141242937854,0.1841481675339623
241,256.31073446327684,616.3785310734463,-0.009380358620886368
242,256.2005730659026,618.1489971346705,0.05139484977223677
243,257.02228412256267,617.1225626740948,-0.09730679780411364
244,258.8550724637681,615.1980676328502,-0.3217814243604175
245,258.6631853785901,615.1305483028721,-0.19118591246857106
246,260.4025423728814,614.6949152542372,-0.27875470004789143
247,260.4513888888889,613.5509259259259,-0.2070289656779885
248,261.03472222222223,612.2754629629629,-0.2179571754394953
249,262.3438256658596,612.2639225181598,-0.24666231505016883
250,265.0502283105023,613.8219178082192,-0.31332491958053404
251,263.9575892857143,610.4642857142857,-0.2619696431227623
252,264.53145336225595,609.1583514099783,-0.25261882222887627
253,265.27442827442826,607.968814968815,-0.2513910242710721
254,266.21325051759834,607.3209109730849,-0.24454413045464396
255,267.2591836734694,607.0265306122449,-0.25179822953235853
256,268.1306818181818,606.4602272727273,-0.24912327544306184
257,269.013698630137,605.4911937377691,-0.24107982417380563
258,269.5697896749522,604.131931166348,-0.24082349186539354
259,270.5342465753425,603.4481409001957,-0.22625721188541795
260,271.17863720073666,601.9705340699816,-0.2266743808737563
261,271.9535714285714,601.6142857142858,-0.2274144196940971
262,273.22768670309654,601.8979963570127,-0.21808889118163563
263,273.85315985130114,600.7620817843866,-0.22884913446734892
264,274.6484962406015,600.1672932330827,-0.22899281588804174
265,275.54612546125463,599.5369003690037,-0.22790160297480616
266,276.4218106995885,599.0864197530864,-0.22657069853403258
267,277.38257575757575,599.5473484848485,-0.22409408832104796
268,277.8892988929889,597.5110701107011,-0.22346193298131364
269,279.04103671706264,597.9611231101512,-0.2195642985549308
270,279.93506493506493,598.0324675324675,-0.21842750082664356
271,280.8144712430427,598.2838589981448,-0.2178206505793372
272,281.89578713968956,598.5986696230599,-0.22104749754785263
273,282.4928716904277,597.5661914460285,-0.22398317312624816
274,283.5239179954442,597.9384965831435,-0.22232717974769037
275,284.54418604651164,598.3651162790698,-0.22498454601640452
276,285.41355140186914,598.3948598130842,-0.21901973864622654
277,286.51910112359553,599.3280898876404,-0.21984654804790646
278,287.37092731829574,599.2055137844611,-0.2253643551707257
279,288.11139240506327,598.6455696202531,-0.21968548457272818
280,289.635593220339,601.3587570621469,-0.22435376185340833
281,290.2967914438503,600.6684491978609,-0.2262796060548494
282,291.08011049723757,600.7486187845304,-0.22807725703662782
283,292.25368731563424,602.1238938053098,-0.23216510706211843
284,293.1121212121212,602.0181818181818,-0.23261106898605202
285,293.7889908256881,601.9480122324159,-0.23610514886199374
286,294.84478371501274,602.6870229007634,-0.23722130796434923
287,295.44444444444446,602.2342342342342,-0.24373942451346137
288,296.40406976744185,602.8488372093024,-0.24914250325593118
289,297.1160949868074,602.3139841688654,-0.25443220517754417
290,298.34883720930236,604.0959302325582,-0.25764694011631056
291,299.4255874673629,604.9321148825065,-0.2725182559311506
292,300.085,604.2574999999999,-0.2778653299104454
293,300.9920212765958,605.5398936170213,-0.27816906954098186
294,301.87465940054494,605.3814713896458,-0.28288474359239063
295,302.71389645776566,605.7901907356949,-0.2841591850353315
296,303.32124352331607,605.4870466321244,-0.31101765153887095
297,304.2886597938144,606.5283505154639,-0.3100812667311336
298,305.2131578947368,607.1052631578948,-0.32741991659171044
299,305.97297297297297,607.4162162162162,-0.33542503541340773
300,306.69101123595505,607.6011235955057,-0.33224369932185893
301,307.74725274725273,608.2554945054945,-0.34770690213107003
302,308.67268041237116,609.4690721649484,-0.36011526920809583
303,309.5896739130435,610.0896739130435,-0.3732137397165437
304,310.44444444444446,610.2628726287263,-0.3720965714356244
305,311.24043715846994,610.7377049180328,-0.35240987916001054
306,311.8965517241379,611.419098143236,-0.36860981187658615
307,312.9299191374663,611.9460916442049,-0.3360526957960545
308,314.0734908136483,613.278215223097,-0.28965669360661644
309,314.55583756345175,613.9771573604061,-0.20862249079392509
310,315.1835106382979,614.9813829787234,-0.08254475499568446
311,316.24,615.72,0.029019579139793923
312,317.18461538461537,617.0205128205129,0.08011858054854468
313,317.9816753926701,617.9816753926701,0.10041036167377644
314,318.65822784810126,618.8683544303798,0.17229308104284216
315,319.56079404466504,619.87841191067,0.1503641527934011
316,320.35380835380835,620.7174447174448,0.15905796401685918
317,321.3,621.9255813953489,0.1556613221318836
318,322.36104513064134,622.9809976247031,0.14437483211475627
319,323.1404761904762,623.9666666666667,0.1489595419606445
320,323.85547785547783,625.1305361305361,0.13535494794735234
321,324.6877934272301,626.255868544601,0.13477389624048847
322,325.43429844097994,627.3385300668151,0.14564308991324987
323,326.52570093457945,627.4485981308411,0.12350916928293453
324,327.5303738317757,628.0771028037383,0.12626411235103815
325,328.0486111111111,629.6944444444445,0.1259876972754025
326,328.9977168949772,630.5479452054794,0.11122812668476154
327,329.99061032863847,631.1478873239437,0.10766419341298038
328,330.9182242990654,631.6191588785047,0.09736748761167455
329,331.34265734265733,633.06993006993,0.09605452480510213
330,332.2704545454545,633.0113636363636,0.09695694369879108
331,334.47738693467335,623.0653266331658,0.10745437028644361
332,336.6701030927835,610.4845360824743,0.080038246433544
333,337.4433962264151,610.5471698113207,0.08954153158594999
334,335.51732673267327,634.299504950495,0.09629235812296325
335,338.95454545454544,611.290909090909,0.0937589905618167
336,339.8301886792453,610.0943396226415,0.1027380773463612
337,340.43119266055044,610.6330275229358,0.10701816523463356
338,338.995085995086,634.941031941032,0.08432843707347022
339,339.7707736389685,634.5472779369627,0.08583410186779485
340,340.53370786516854,634.6348314606741,0.08985421768796896
341,341.035175879397,636.3718592964824,0.08628783407904972
342,341.841075794621,636.2273838630807,0.08070596756573895
343,342.657223796034,635.1303116147309,0.089373526755924
344,343.46091644204853,634.4716981132076,0.08961567564142006
345,344.1756097560976,634.7975609756097,0.08888918115081458
346,344.90314136125653,634.479057591623,0.09467041365838107
347,345.4343675417661,635.7040572792363,0.09294966708193778
348,346.2154195011338,635.0022675736961,0.09575564550346603
349,347.0047846889952,635.1531100478469,0.10201704422087257
350,347.5875576036866,634.536866359447,0.1040457968572761
351,348.5023474178404,632.9366197183099,0.10538647674693437
352,349.07551487414185,634.1945080091533,0.1119111088054786
353,349.9318181818182,633.2659090909091,0.11776523864617783
354,350.63834422657953,633.437908496732,0.12253423814839594
355,351.32819383259914,632.5881057268723,0.12336505046318505
356,352.0,633.1132075471698,0.12788585874665198
357,352.579185520362,632.2850678733032,0.13679417273753913
358,353.2825112107623,632.286995515695,0.14927079451715267
359,354.4801324503311,628.2847682119206,0.15896177773527492
360,354.68918918918916,631.1306306306307,0.15899234606753712
361,355.19545454545454,631.7272727272727,0.16668265242598693
362,356.28656716417913,629.4149253731343,0.17531371461261405
363,357.5211267605634,625.8345070422536,0.18923142142589208
364,361.1354166666667,612.53125,0.05359872999884164
365,359.1764705882353,624.0367647058823,0.2218507627267042
366,359.9224489795918,623.334693877551,0.24052258205316063
367,360.99532710280374,621.392523364486,0.2559771298912245
368,360.95880149812734,623.6479400749064,0.27746182417441395
369,360.4306220095694,628.4593301435407,0.24970067004409588
370,362.31102362204723,623.7047244094488,0.2908988524124184
371,364.515923566879,618.0,0.38517968153720017
372,366.34883720930236,616.6356589147287,0.1139468419607183
373,367.2348484848485,617.4090909090909,0.06407282922754103
374,366.01666666666665,619.7222222222222,0.40296456608219394
375,368.7107438016529,618.0495867768595,-0.02441519005412514
376,369.5196850393701,618.8031496062993,-0.0769616855776354
377,366.00299401197606,623.9461077844311,0.2912474622806814
378,370.875,619.7416666666667,-0.1488832321151876
379,367.6014234875445,620.8576512455516,-0.2980261638210697
380,368.5255474452555,620.2408759124088,-0.5222392815639058
381,370.82702702702704,619.745945945946,-0.39172660904163586
382,369.5451388888889,619.1597222222222,-0.5274796673921591
383,370.43055555555554,619.0486111111111,-0.48767882192815093
384,369.5396475770925,618.9030837004406,-0.34853013803338473
385,371.3554006968641,616.7142857142857,-0.4807003149448305
386,376.5147058823529,622.7720588235294,-0.20791891870344395
387,373.65,619.0142857142857,-0.35954956057881376
