FrameNo,Row,Column,Angle
53,29.294670846394986,822.2100313479624,-1.275105865916117
54,31.57806691449814,822.7732342007434,-1.2891864305423353
55,33.36395759717315,823.1148409893993,-1.297899052922092
56,34.68457538994801,823.3570190641248,-1.3027028871579174
57,37.06810631229236,823.9285714285714,-1.310536662432884
58,39.068403908794785,824.2947882736156,-1.3150766420053805
59,41.73362445414847,824.7489082969432,-1.3169533219838663
60,43.521806853582554,825.1775700934579,-1.3352669794279266
61,45.65290519877676,825.6360856269113,-1.3557343984956525
62,47.502170767004344,826.1331403762663,-1.347556948615661
63,49.399702823179794,826.3878157503715,-1.3666083040597292
64,51.76144244105409,827.0,-1.3672627161348225
65,53.2315484804631,827.191027496382,-1.3824144124634685
66,55.65706447187929,827.7352537722908,-1.3948497866875067
67,57.98185117967332,828.1179673321234,-1.3891282443000859
68,59.61898211829436,828.6547455295736,-1.4026646401376102
69,61.34862385321101,829.0144167758847,-1.4162741236687404
70,63.80378890392422,829.4073071718539,-1.4188040193496645
71,66.07046979865771,829.9530201342282,-1.4293262152475938
72,68.03883495145631,830.3640776699029,-1.444348634626146
73,70.1732283464567,830.8535433070866,-1.4548592891535068
74,72.15372670807453,831.2981366459627,-1.4659581897643825
75,74.22100313479623,831.7993730407524,-1.4746291676564038
76,76.63338533541342,832.3494539781591,-1.4798508549971512
77,78.6405529953917,832.726574500768,-1.49891346842834
78,80.7442218798151,833.3405238828967,-1.5156078469228143
79,82.59883720930233,833.8241279069767,-1.5237045635173694
80,85.26466165413534,834.203007518797,-1.5261455004917293
81,86.69208633093525,834.8647482014388,-1.5472138115297676
82,88.73521126760564,835.2676056338028,-1.5573714788728126
83,90.87794729542303,835.9098474341192,-1.5678541604629326
84,93.02517482517483,836.3034965034965,1.5580320753026693
85,95.32222222222222,836.8902777777778,1.5485738446581685
86,97.3070652173913,837.4497282608695,1.5322218171520419
87,99.13119143239625,837.9370816599733,1.5208352497037165
88,102.18207282913166,838.3921568627451,1.5210107244056439
89,103.66842105263157,839.128947368421,1.494571259434385
90,105.45039164490862,839.6579634464752,1.4816588640418331
91,107.74806201550388,840.3229974160207,1.4698210763274233
92,110.13384813384813,840.7413127413128,1.4576778104027202
93,112.03176620076239,841.3341804320203,1.4433920389431694
94,114.93403693931398,841.5989445910291,1.457035491994111
95,116.3525,842.54625,1.412323206940709
96,118.49810844892812,842.9936948297604,1.403518447698646
97,121.03109452736318,843.4589552238806,1.4025532588086087
98,123.2751256281407,843.9585427135678,1.3931005684829332
99,125.74747474747475,844.4507575757576,1.3932964141229451
100,127.11397058823529,845.3014705882352,1.3469188397661183
101,129.56280788177338,845.8189655172414,1.343788635176839
102,132.67688378033205,845.9936143039591,1.3568849411193198
103,133.9590062111801,846.6571428571428,1.3422409878647406
104,137.2233502538071,847.1218274111675,1.3310564577501498
105,138.50245098039215,847.998774509804,1.2950166431682815
106,141.3080808080808,848.3257575757576,1.3006596186964494
107,142.7242206235012,849.1378896882494,1.2692085311929608
108,144.24561403508773,850.2,1.2284029064967972
109,146.8009478672986,850.5213270142181,1.2304293233991672
110,150.13659147869674,850.4949874686716,1.2439586131945026
111,151.01760563380282,851.8075117370892,1.1941814644150996
112,154.59028642590286,851.6587795765878,1.2194742405256898
113,154.45437441204137,853.4412041392286,1.175831892800891
114,156.7741330834114,853.8378631677601,1.1592178521892524
115,158.77134724857683,854.7096774193549,1.1448985399893397
116,160.87238095238095,855.1800000000001,1.128729997569262
117,162.76470588235293,855.8757115749526,1.1286058600460145
118,165.81783317353788,856.2540747842761,1.1109538788432347
119,167.92206572769953,856.9605633802817,1.0990020386604347
120,169.9158091674462,857.7202993451824,1.0867736714137828
121,172.09710550887021,858.3090569561158,1.0689300036056975
122,174.22996183206106,858.7900763358779,1.0702438644990493
123,176.58106841611996,859.4489222118088,1.0504422683812071
124,178.87823585810162,859.8676893576222,1.0405703270376585
125,181.08404154863078,860.4230406043437,1.032583585795243
126,183.67419962335217,860.9510357815443,1.0255072658782496
127,185.35350624399615,861.6167146974063,1.0069843503639004
128,187.89473684210526,862.111004784689,1.006457106486496
129,189.88845014807504,862.5873642645607,1.0069014929957352
130,192.1045943304008,863.1779081133919,0.9797402150950301
131,194.58788480635553,863.558093346574,0.9747963958048076
132,196.7907444668008,864.1146881287726,0.9712947617600604
133,198.61601642710474,864.8757700205339,0.965335350154288
134,201.00521920668058,865.3256784968685,0.94748542735359
135,203.63223140495867,865.6095041322315,0.9450076658409626
136,205.63862928348908,866.3094496365525,0.9400910261927846
137,207.86673773987206,866.8464818763326,0.9253498869792328
138,210.38235294117646,867.0501089324619,0.9257388652458961
139,212.92679558011048,867.3397790055249,0.9023619007289632
140,215.16760563380282,867.7253521126761,0.9043526019604692
141,216.54814004376368,868.847921225383,0.8967101756266131
142,219.02957906712174,869.0602957906713,0.9001588482263613
143,222.00147710487443,868.8168389955687,0.8888241827572683
144,223.77225433526013,869.7722543352601,0.8920669974296657
145,226.57404580152672,869.7541984732825,0.8700058471204264
146,227.86083743842363,870.6785714285714,0.8806577891001525
147,230.20226130653265,871.0603015075377,0.8804488075598567
148,232.89054726368158,871.0870646766169,0.8792144675328757
149,235.47540983606558,871.156368221942,0.8772797912386437
150,237.6521739130435,871.5373913043478,0.8631606856983773
151,239.4294954721863,872.0271668822768,0.8656346116446557
152,241.6784260515604,872.7218453188602,0.8657336683370511
153,244.6212938005391,872.5094339622642,0.8579001194396753
154,247.1521739130435,872.2282608695652,0.8597379854172337
155,248.43823529411765,873.3544117647059,0.8525106513497875
156,250.67571644042232,873.5610859728507,0.8674650686681342
157,253.00616332819723,873.8043143297381,0.8597821479610366
158,255.6150159744409,873.6964856230032,0.8649033636905513
159,257.6003159557662,873.9747235387046,0.8583311078946276
160,260.1456953642384,874.0794701986755,0.8655811331610488
161,262.4006734006734,874.2087542087543,0.8707010194579342
162,264.625,874.3628472222222,0.8715889182644712
163,266.97719298245613,874.3456140350877,0.8748795932680975
164,269.41970802919707,874.4452554744526,0.8869808518899339
165,271.49502982107356,874.2922465208748,0.887593707295028
166,273.89473684210526,874.502024291498,0.8827433151431582
167,276.1745379876797,874.435318275154,0.8916212922453339
168,278.60434782608695,874.2521739130435,0.917338626173638
169,280.5804195804196,874.6829836829837,0.9119379748685319
170,283.20935960591135,874.2019704433498,0.92002465205054
171,285.6760925449871,874.0822622107969,0.921237820911527
172,287.6170212765958,874.4281914893617,0.9407434626486255
173,290.1613832853026,874.014409221902,0.9564237548350709
174,291.86607142857144,873.875,1.0153653095338415
175,294.40828402366867,873.6420118343195,1.0050958925658369
176,296.7167832167832,873.8426573426574,0.993470480286894
177,299.14444444444445,873.5481481481481,0.9891654280027363
178,301.36653386454185,873.3864541832669,1.0022123105760512
179,305.0472103004292,872.6480686695279,1.061022411193823
180,306.2707182320442,872.8950276243094,1.0647075716384673
181,309.1744186046512,872.3953488372093,1.0817100720119708
182,312.61538461538464,871.6217948717949,1.0972075833405601
183,315.88666666666666,871.1333333333333,1.1103788607410667
184,317.0059880239521,871.4730538922156,1.1400575289898198
185,318.2737430167598,871.8491620111731,1.1698574474419399
186,320.25,871.7760416666666,1.1990414053254725
187,321.95588235294116,871.6470588235294,1.2118739789391393
188,324.3719008264463,871.5909090909091,1.2734908953621522
189,325.1268656716418,871.8283582089553,1.264011657345038
190,328.0865051903114,871.2941176470588,1.3089136385401967
191,329.5971731448763,871.077738515901,1.3691273208712094
192,332.37666666666667,870.69,1.3618183526012284
193,333.55799373040753,870.564263322884,1.4240393163602756
194,336.25072886297374,870.4139941690962,1.4618189141901277
195,338.19642857142856,869.8541666666666,1.494870739484043
196,340.17426273458443,869.5093833780161,1.5293664158264304
197,342.5398936170213,869.0132978723404,-1.5398283197799802
198,344.1546134663342,868.3940149625935,-1.4930235909057237
199,346.96125907990313,868.3825665859564,-1.2414119828655916
200,349.3938730853392,868.039387308534,-1.219006781145255
201,351.26100628930817,867.4811320754717,-0.8743625918434283
202,353.3832335329341,867.0958083832336,-0.74165961805425
203,355.61127596439167,866.7804154302671,-0.6299409049756474
204,357.58379888268155,866.159217877095,-0.5482868710804482
205,359.8849315068493,865.9424657534247,-0.4547785410097563
206,362.0116504854369,865.0679611650486,-0.3175364141444224
207,364.2207792207792,865.1506493506494,-0.3543509919228102
208,366.27659574468083,864.136524822695,-0.21003889721794672
209,368.2931034482759,863.8940886699507,-0.2559096147517081
210,370.70050761421317,863.0135363790187,-0.15593811395046206
211,372.6886326194399,862.3772652388798,-0.1284999410900484
212,374.7080291970803,863.5158150851581,-0.2608259378559991
213,376.8497536945813,863.5714285714286,-0.26746279242177634
214,379.1454545454545,864.0545454545454,-0.2751815720328866
215,381.2650231124807,860.1371340523883,-0.06088073607956638
216,383.5274725274725,861.2373626373626,-0.12291313084113784
217,385.3485193621868,861.5671981776766,-0.18682881638804985
218,387.59238095238095,859.1504761904762,-0.07882753631769115
219,389.7391304347826,858.4914933837429,-0.06481271435061303
220,391.80688336520075,858.2543021032504,-0.0746235687941224
221,393.8833333333333,857.6925925925926,-0.05397434682411161
222,395.96946564885496,858.1889312977099,-0.07278902223156325
223,398.03504043126685,856.2169811320755,-0.019285681633471195
224,402.5220588235294,862.7830882352941,0.042119592362241
225,403.04199475065616,861.1181102362204,0.018056983802886766
226,404.16363636363633,855.7454545454545,-0.034771836340296305
227,406.0597609561753,854.4754316069057,-0.014463610846628708
228,409.0303797468354,859.7670886075949,0.02124000050429198
229,410.4264432029795,854.391061452514,-0.018847846420158732
230,412.15211970074813,853.0399002493766,0.005130396019431445
231,414.07246376811594,853.094861660079,-0.014142581097150246
232,416.283422459893,853.1577540106952,-0.0037336608003522335
233,418.48795944233206,852.5399239543726,-0.0054609821957914105
234,420.31941923774957,852.437386569873,-0.007976201909201721
235,422.1252408477842,853.6840077071291,-0.035904338054765686
236,424.19466666666665,852.252,-0.005343928183704867
237,426.1857410881801,851.7692307692307,-0.021058388537354665
238,427.41011984021304,850.6138482023969,0.005649276229173272
239,429.81404958677683,850.6914600550964,-0.007093789930451647
240,431.89740082079345,850.8837209302326,-0.011888674049589426
241,433.77746870653687,850.7705146036161,-0.01913406872936398
242,435.49865229110515,850.5646900269542,-0.007699356897064789
243,437.76106194690266,850.4498525073747,-0.019296581278374168
244,439.0817610062893,850.3569182389937,-0.025225250641295743
245,440.8840803709428,849.8948995363215,-0.014161150254360563
246,443.09927360774816,850.9152542372881,-0.05953865456920384
247,445.10837438423647,850.5295566502463,-0.04768674017539315
248,446.66577540106954,850.4598930481284,-0.0601614541503425
249,448.4452296819788,850.9752650176679,-0.05881841335330157
250,450.4685714285714,851.2028571428572,-0.07963903859800857
251,452.10642570281124,852.0582329317269,-0.08101911551031443
252,453.80720338983053,852.3262711864406,-0.08598500822258665
253,455.57238307349667,852.0534521158129,-0.09933479661809008
254,457.3,852.0119047619048,-0.10868147844358067
255,459.0295566502463,852.4679802955665,-0.13342635400637945
256,460.82085561497325,853.3048128342245,-0.14451605658399497
257,462.5897435897436,853.1538461538462,-0.16736989293141227
258,464.35897435897436,854.6089743589744,-0.1738048761492133
259,466.09963099631,854.0332103321033,-0.22462126270824975
260,467.96296296296293,855.2870370370371,-0.23194622424194902
261,469.59693877551024,855.4234693877551,-0.25873941008811413
262,471.4878048780488,856.4634146341464,-0.29314711046132713
263,473.6535433070866,857.724409448819,-0.3166419237426839
264,475.9826086956522,859.8608695652174,-0.35446236108800594
265,476.8089171974522,857.7261146496816,-0.4079659622548745
266,478.3804347826087,857.5489130434783,-0.4390028456040702
267,479.5433789954338,857.1415525114155,-0.46169890062923974
268,481.4562211981567,857.8571428571429,-0.49989627281753146
269,482.7381974248927,857.862660944206,-0.5327462077117338
270,484.86545454545455,858.5454545454545,-0.6046879449509562
271,486.19642857142856,858.9857142857143,-0.5164578686939137
272,488.0243902439024,859.7247386759582,-0.4955277661464449
273,489.26143790849676,860.1535947712418,0.09082412601827154
274,490.7942857142857,861.1114285714286,0.18909570579383622
275,491.9416445623342,862.0424403183024,0.4410049982264063
276,493.8040712468193,862.3893129770993,0.4054749895407555
277,495.34912718204487,863.0523690773067,0.427027027816945
278,497.83962264150944,863.5235849056604,0.495881845986257
279,498.533185840708,864.3053097345132,0.4626547681385745
280,499.9690949227373,865.0618101545253,0.42459964823279034
281,501.7554112554113,865.8203463203463,0.4386418511626148
282,503.47863247863245,866.4316239316239,0.44391315090836475
283,505.01458333333335,866.95,0.41931848208133377
284,506.6841046277666,867.0321931589538,0.4325417722558986
285,508.62252964426875,867.7233201581028,0.433319217496291
286,509.76,868.5699999999999,0.4254064311712445
287,511.445564516129,868.9677419354839,0.41078332842542237
288,513.0764331210191,869.140127388535,0.4095619089883899
289,514.7575757575758,869.5252525252525,0.414902936070356
290,516.1554192229039,870.4008179959101,0.41529112484276043
291,518.2020618556701,869.8969072164948,0.4055991046000351
292,519.496855345912,870.769392033543,0.41202737409566453
293,521.0347071583515,870.8524945770065,0.4109183297202142
294,522.9512711864406,871.0169491525423,0.4103704769626262
295,524.294382022472,871.3662921348315,0.4139495642947528
296,526.0,872.3236607142857,0.40098447469452675
297,527.5033860045147,871.8758465011286,0.40151919213971254
298,529.3632075471698,871.1580188679245,0.41775106961003017
299,531.1529745042493,870.6912181303117,0.41987232886374154
300,532.953125,870.5755208333334,0.4205749986411709
301,534.4904632152588,870.741144414169,0.4342511219969868
302,536.0745341614906,870.2919254658385,0.4309246642875613
303,538.119298245614,869.3473684210526,0.43646438340156507
304,539.965250965251,868.7104247104247,0.4429721854090765
305,542.0537190082645,867.4214876033058,0.44606554027238676
306,544.4777327935223,865.5668016194331,0.4641273677439448
307,547.2383177570093,862.911214953271,0.4731581449566671
308,548.2467532467532,863.6580086580086,0.488570529040765
309,549.0038910505837,865.0194552529183,0.49221490045417854
310,550.5289575289576,864.6525096525097,0.50508940415971
311,552.1480144404333,864.3465703971119,0.5132660033235266
312,553.5111111111111,864.4888888888889,0.5475739735618941
313,555.1578947368421,863.906432748538,0.5432000125359977
314,556.3065015479876,864.0681114551084,0.5790196485815516
315,558.1141141141142,863.2972972972973,0.6110201062401731
316,559.6132930513595,862.9123867069486,0.6375530188155334
317,561.1142857142858,862.2142857142857,0.6736377964197672
318,562.4371584699454,861.9672131147541,0.7008620773673785
319,563.824512534819,861.4596100278552,0.733425965594588
320,565.1031746031746,860.5198412698412,0.7649798250255379
321,566.577358490566,859.8792452830189,0.8289708511553746
322,568.3809523809524,858.7936507936508,0.8871408842934194
323,569.8615384615384,858.2384615384615,0.9340983089557536
324,572.3761904761905,857.7,0.9381392979004792
325,572.5156794425087,856.9337979094076,1.1516088749082036
326,574.4269662921348,855.9850187265918,1.3524622406333284
327,575.2602409638554,855.0578313253012,-1.5073115286253578
328,576.8019801980198,854.0222772277227,-0.8637335608397712
329,578.9331941544885,852.8601252609603,-1.037329034347588
330,579.7845804988663,852.1995464852607,-0.6843148612556784
331,582.6,852.5818181818182,-0.8135921635626889
332,582.5944798301487,849.7006369426751,-0.5247142540489677
333,585.2194174757282,849.2854368932038,-0.5490939296757803
334,586.0180722891566,847.6646586345381,-0.406303224641227
335,587.648393194707,846.7844990548205,-0.38827036309086876
336,588.9258517034068,845.7054108216432,-0.3456616962765443
337,590.1716417910447,844.3656716417911,-0.3193952266273592
338,595.0855855855856,850.7072072072071,-0.2485617478387845
339,593.4114391143911,842.789667896679,-0.2658842100933289
340,594.9419237749546,841.9092558983666,-0.23979907533525865
341,596.7487001733102,841.7088388214904,-0.22754045982229895
342,598.1836007130125,840.4028520499108,-0.24640902143712717
343,599.6422487223168,839.557069846678,-0.1976924300404977
344,600.7673611111111,838.4166666666666,-0.18705620536510595
345,602.2837127845885,838.2539404553415,-0.1813570155291822
346,603.893220338983,837.1254237288135,-0.16811155650575146
347,605.5033783783783,836.9121621621622,-0.144365332625658
348,606.8054545454545,836.3909090909091,-0.14682960192652927
349,608.4242424242424,835.6767676767677,-0.14952024070514827
350,609.7472324723248,835.4372693726937,-0.1282035372185808
351,611.5196581196581,835.6547008547009,-0.12695878131347732
352,612.5561904761905,834.1885714285714,-0.10677693651242615
353,614.195530726257,834.0856610800745,-0.1115687051720188
354,615.2594059405941,833.219801980198,-0.09840650446191548
355,616.995983935743,833.7610441767068,-0.09110899592300335
356,618.4758064516129,833.6814516129032,-0.08687342226722035
357,619.8917197452229,833.3906581740977,-0.07505400581940117
358,621.3556581986143,833.891454965358,-0.08493557836945757
359,622.7363636363636,833.7386363636364,-0.07992784997478182
360,623.8512195121951,833.619512195122,-0.057718509386238244
361,625.458549222798,834.3886010362694,-0.046701151477845294
362,626.8389610389611,834.1792207792208,-0.0667189489200268
363,628.0459770114943,834.7586206896551,-0.05970959495282272
364,629.3194888178914,835.2268370607029,-0.04789630317704645
365,630.7651515151515,835.7083333333334,-0.055677969553641043
366,632.0684410646388,836.1520912547528,-0.045886613310972275
367,633.3291666666667,836.8041666666667,-0.07416987880080476
368,634.6113989637306,836.6632124352332,-0.048108159477546396
369,635.859375,837.4166666666666,-0.0732115795300751
370,637.0843373493976,837.7469879518072,-0.09715818557150721
371,638.3862068965517,838.6413793103449,-0.07641623703135217
372,639.6746031746031,839.0555555555555,-0.07514524559610977
373,640.9633027522935,839.9633027522935,-0.07692810919474405
374,641.9545454545455,841.1477272727273,-0.045840463140820215
375,643.1846153846154,842.0923076923077,-0.040354969039789086
376,644.8461538461538,842.2051282051282,-0.056457314517683294
377,646.0,842.3516483516484,-0.07005028584438772
378,646.8829787234042,842.968085106383,-0.00946172524774084
379,648.0825688073395,843.4954128440367,-0.02949701763430408
380,649.6583333333333,843.7333333333333,0.016626937753633025
381,650.6821705426356,845.0930232558139,0.03463679633401223
382,651.3557046979865,844.5906040268457,0.05913470325804976
383,652.5576923076923,845.5641025641025,0.08814939276262959
