FrameNo,Row,Column,Angle
301,158.6087268,987.1373391,-0.822786009
302,159.3090129,987.7689557,-0.849230509
303,159.8549674,988.2973169,-0.889169935
304,160.5146324,988.8536759,-0.952514681
305,161.2369565,989.3195652,-1.022426288
306,161.7149964,990.2267235,-1.176763785
307,162.244302,990.5405983,-1.2145785
308,162.6752874,991.1946839,-1.455508207
309,163.4245077,991.8417214,-1.54989264
310,163.7038082,992.5126939,1.395313032
311,164.3094556,993.239255,1.28085879
312,165.1588785,993.8389648,1.185900948
313,165.5875991,994.5378515,1.094888597
314,166.1169468,995.219888,1.008600191
315,166.7027601,995.7622081,0.978171959
316,167.469127,996.3271824,0.925698219
317,168.077574,996.9844852,0.89997347
318,168.7370266,997.5645161,0.876665861
319,169.384509,998.2994467,0.83325478
320,170.1547117,998.8122363,0.808865172
321,170.758211,999.5995807,0.785893166
322,171.5065562,1000.135266,0.757393962
323,172.0775623,1000.789474,0.733076313
324,172.5756738,1001.392536,0.71243752
325,173.29302,1001.975121,0.696272263
326,174.1247444,1002.433538,0.6742111
327,174.9308725,1002.914094,0.670888176
328,175.3349185,1003.985734,0.637038807
329,176.2309764,1004.298316,0.620672514
330,176.7526738,1004.727273,0.60299276
331,177.4853841,1005.486744,0.590288927
332,178.257849,1006.04676,0.578541389
333,179.128274,1006.298187,0.56327273
334,179.6162483,1006.90753,0.552238824
335,180.4674278,1007.26595,0.536346157
336,181.081457,1007.972185,0.520391217
337,181.6606786,1008.699933,0.515982104
338,182.5947541,1008.960656,0.498320324
339,183.2385077,1009.365756,0.487741377
340,184.0539846,1009.776992,0.484034171
341,184.5515899,1010.566515,0.470286682
342,185.3564994,1011.027027,0.462732683
343,186.1772908,1011.249004,0.450367639
344,186.9251918,1011.677749,0.445801572
345,187.6167315,1012.05642,0.435017113
346,188.4069994,1012.510693,0.425963456
347,189.3206806,1012.450262,0.416622053
348,189.8298969,1013.42268,0.408797387
349,190.4761273,1013.824271,0.400512589
350,191.0615684,1014.729747,0.390207473
351,191.8842867,1014.802761,0.381760614
352,192.620039,1015.270007,0.378638717
353,193.6319629,1014.68634,0.370520997
354,193.9903784,1016.249519,0.364597051
355,195.2416107,1015.496644,0.360261013
356,196.0958361,1015.038995,0.355547092
357,196.6981004,1015.943691,0.34763105
358,197.197903,1016.75426,0.345134028
359,198.1691576,1016.675272,0.33814392
360,199.2243935,1016.119272,0.331799743
361,200.160221,1016.259669,0.331905537
362,200.8374317,1016.227459,0.324160085
363,201.602459,1016.505464,0.313113679
364,202.4336345,1016.108409,0.307507228
365,203.2150072,1016.184704,0.308758347
366,203.8844257,1016.633545,0.304381063
367,204.6375451,1017.07509,0.299151518
368,205.7844702,1016.493469,0.293766269
369,206.4085631,1016.674165,0.294013474
370,207.3651246,1016.888256,0.278799523
371,207.9677177,1016.685435,0.279712655
372,208.9938885,1015.930481,0.273925709
373,209.9788039,1015.713096,0.270664351
374,210.2905199,1017.003058,0.272558007
375,211.4092726,1015.851319,0.271642035
376,212.3737134,1015.845606,0.263239428
377,213.1381789,1015.427316,0.261797418
378,214.0096618,1015.603865,0.254988118
379,214.6692308,1015.303419,0.258177197
380,215.7406794,1014.550953,0.250578384
381,216.6658009,1014.100433,0.250470534
382,217.2864494,1013.826758,0.249382004
383,218.359799,1013.41005,0.237851906
384,218.9775986,1013.453405,0.237034878
385,219.7023933,1013.776275,0.234060978
386,220.5464248,1012.91889,0.233055502
387,221.4809989,1012.51683,0.228433669
388,222.3013544,1012.221219,0.227578128
389,223.0723307,1011.518944,0.225813414
390,224.0994152,1011.088889,0.230184854
391,225.0876543,1009.909877,0.218986293
392,225.7396746,1010.319149,0.218196964
393,226.3976879,1009.788439,0.210730585
394,227.3097463,1009.118825,0.215037715
395,228.2429379,1008.525424,0.214392888
396,228.9562682,1008.5,0.213337336
397,229.676514,1008.556869,0.202919792
398,230.4892966,1007.752294,0.212298428
399,231.4032258,1007.180645,0.203559773
400,232.1026059,1006.643322,0.202431428
401,233.0235294,1005.667227,0.204493199
402,233.9426087,1004.831304,0.198884317
403,234.6705653,1004.298246,0.197178712
404,235.64,1003.147368,0.196082909
405,236.3340659,1003.175824,0.192926156
406,237.0910973,1002.581781,0.195758955
407,238.1111111,1001.22716,0.189212776
408,238.9842105,1000.610526,0.190158245
409,240.7402597,994.9318182,0.201849392
410,240.2198391,1000.367292,0.19094827
411,242.4507042,992.6619718,0.205539562
412,241.5843521,1000.552567,0.191141594
413,242.2418478,1000.42663,0.194404186
414,242.8549618,1001.312977,0.192886193
415,243.8280423,999.9338624,0.191377631
416,244.625323,999.2144703,0.191423148
417,245.1142857,999.6155844,0.189353523
418,245.7746114,1000.041451,0.199982675
419,246.6760563,999.1830986,0.19608421
420,247.4753247,998.9428571,0.197397932
421,247.8142857,998.8690476,0.170927293
422,248.6838046,998.9460154,0.194845239
423,249.3254593,999.1286089,0.201197198
424,250.2282051,998.1128205,0.19476596
425,251.310757,996.4422311,0.205850488
426,253.5189873,988.9746835,0.219381158
427,253,994.7647059,0.202666277
428,252.9632184,998.0505747,0.167056666
429,253.75,997.077957,0.17900987
430,254.7786885,995.1516393,0.201375657
431,255.8508772,993.4298246,0.195382741
432,255.7454068,995.992126,0.133059548
433,257.3902439,993.2536585,0.204162458
434,256.8917379,995.031339,0.09905179
435,259.5578231,991.6054422,0.108794913
436,258.7293814,993.4097938,0.082331233
437,259.5714286,993.2408964,0.055566074
438,260.0794045,992.4913151,-0.015647996
439,260.5812672,991.7575758,-0.042948106
440,261.0552764,991.2839196,-0.075007159
441,261.9039813,989.9297424,-0.095270504
442,262.8042895,989.616622,-0.101280502
443,263.498615,989.0138504,-0.114114001
444,263.9386792,987.4858491,-0.13397376
445,264.6436464,987.3508287,-0.13522842
446,265.4756757,987.0837838,-0.145951706
447,266.0670241,986.6434316,-0.151226148
448,266.8179487,985.8666667,-0.137483408
449,267.4871795,985.6487179,-0.156539441
450,268.1055276,985.0778894,-0.154493513
451,268.5667506,984.0377834,-0.153128124
452,269.3206107,983.7226463,-0.141257931
453,270.0822281,983.6525199,-0.147539432
454,270.5751634,982.2396514,-0.150244487
455,271.3440594,983.2475248,-0.140230477
456,271.6569038,981.2029289,-0.145200789
457,272.5391924,981.7244656,-0.145226794
458,272.8607069,979.8461538,-0.14090661
459,273.8788599,980.6247031,-0.151181784
460,274.5158924,980.3471883,-0.145008364
461,275.1238739,979.5653153,-0.149939113
462,275.6376812,979.02657,-0.143051254
463,276.0361905,977.3295238,-0.136793545
464,276.5327103,976.7719626,-0.142623929
465,277.2916667,976.26875,-0.148118708
466,277.8773784,976.7737844,-0.14673482
467,278.460084,976.0105042,-0.147228645
468,278.9347443,974.8447972,-0.148816092
469,279.1930435,973.3217391,-0.145941725
470,279.9486692,973.6596958,-0.145703148
471,280.470297,973.4372937,-0.149841916
472,280.9173693,971.6947723,-0.156100596
473,281.8212928,971.6692015,-0.151335268
474,282.411449,971.8318426,-0.151159267
475,282.7109005,970.4407583,-0.154529208
476,283.3688663,969.8629442,-0.154233202
477,283.8650519,969.3979239,-0.158220093
478,284.5308848,969.0317195,-0.153450118
479,285.1376451,968.4079602,-0.160340182
480,285.650641,967.8333333,-0.159543609
481,286.188383,967.4536892,-0.159232369
482,286.5737705,966.1833085,-0.160729718
483,287.2825397,966.7968254,-0.16308386
484,287.9518248,966.0364964,-0.165946063
485,288.3677511,965.2461103,-0.166372916
486,289.0863095,965.5133929,-0.169541872
487,289.4690027,964.4043127,-0.169189464
488,290.2379032,964.6841398,-0.17074614
489,290.8387097,965.3198925,-0.174659141
490,291.3281453,964.3955901,-0.176035016
491,291.9635535,964.2255125,-0.176871446
492,292.2773481,963.1779006,-0.177331154
493,293.0391937,963.3236282,-0.180920163
494,293.4776931,963.1860718,-0.183841989
495,294.1593886,963.2740175,-0.18805272
496,294.8185053,963.1198102,-0.19256958
497,295.3700306,963.27421,-0.19664239
498,296.0102564,962.9897436,-0.200079336
499,296.6426117,963.1111111,-0.196460972
500,297.1039106,962.4480447,-0.203383097
501,297.97,963.4566667,-0.204369914
502,298.1521522,962.2592593,-0.214259073
503,299.0048876,963.0645161,-0.20915175
504,299.6277724,963.4532305,-0.219592756
505,300.0518519,962.6708995,-0.220122042
506,300.4800759,962.2685009,-0.224131222
507,300.9835729,961.7946612,-0.227582353
508,301.662014,962.3808574,-0.230368494
509,302.2948328,962.2289767,-0.239511168
510,302.8193613,962.3542914,-0.238946557
511,303.0151921,961.9159964,-0.243973741
512,304,962.4382896,-0.245565658
513,304.3035363,962.1159136,-0.252498683
514,304.770551,961.9575429,-0.254594414
515,305.7597276,962.7928016,-0.262508862
516,306.3352546,962.9971182,-0.263756668
517,306.546087,962.486087,-0.271889407
518,307.2924028,962.9832155,-0.278330587
519,307.712317,962.8225668,-0.28472401
520,308.5004284,963.3718937,-0.289538899
521,309.2475771,963.7515419,-0.292425001
522,309.7945326,963.8818342,-0.293824764
523,310.0778443,963.3609923,-0.298296651
524,310.9488055,964.1134812,-0.308256173
525,311.5463122,964.6740995,-0.319644408
526,311.9283305,964.3220911,-0.326109768
527,312.7705061,964.6832461,-0.32775408
528,313.2198642,964.5398981,-0.334550845
529,313.5921835,964.3491929,-0.342680403
530,314.2115059,965.1446701,-0.353176863
531,314.9922945,965.7277397,-0.356768404
532,315.6801347,966.3299663,-0.364889166
533,316.2452991,966.0803419,-0.370061242
534,316.8242678,966.3924686,-0.380433578
535,317.4410774,967.0597643,-0.392470835
536,317.9705387,967.026936,-0.403597903
537,318.61558,967.788315,-0.41253011
538,319.2333887,967.910299,-0.429153874
539,319.8987234,968.5557447,-0.428438616
540,320.3344426,968.5848586,-0.432067982
541,321.180067,969.2428811,-0.452606588
542,321.5054032,969.2668329,-0.460221387
543,322.2392586,969.8525695,-0.476321554
544,322.7540288,970.1662426,-0.488873373
545,323.5109612,970.7554806,-0.498573008
546,323.8571429,970.7579832,-0.50908146
547,324.4832905,971.2587832,-0.521984043
548,325.295416,971.8412564,-0.549789713
549,325.8771331,972.4044369,-0.559852429
550,326.0254237,972.390678,-0.588365887
551,326.8865546,972.8941176,-0.578840395
552,327.9505637,973.7068517,-0.593568512
553,328.2750643,973.9562982,-0.6089136
554,329.2677966,974.7669492,-0.64736225
555,329.5365434,975.1298366,-0.662216355
556,330.1937128,975.7085811,-0.681960911
557,330.7767159,976.264987,-0.727186295
558,331.6306383,976.9046809,-0.715132676
559,332.2086882,977.39523,-0.741588032
560,332.7310997,977.8900344,-0.795216686
561,333.5601695,978.5254237,-0.808606142
562,333.9207161,979.0034101,-0.845821295
563,334.6196831,979.6780651,-0.896623602
564,335.4020185,980.3793103,-0.973164294
565,336.2202381,980.962585,-1.138521799
566,336.845767,981.3730092,1.381811653
567,337.6157718,982.1325503,0.977980312
568,338.2472849,982.9005848,0.92019796
569,338.9259259,983.3020576,0.824428925
570,339.5748752,984.046589,0.747268443
571,340.2470978,984.8208955,0.735393019
572,340.8236246,985.4085761,0.709278075
573,341.6337684,986.0440457,0.685876361
574,342.3942857,986.7763265,0.65664465
575,343.4155324,987.0072058,0.641185766
576,343.7016,987.8088,0.603792778
577,344.7367994,988.493095,0.592520813
578,344.9219745,989.4283439,0.556579598
579,345.953451,990.0866774,0.545007158
580,346.7142857,990.39585,0.52937689
581,347.3372734,990.9479905,0.507266906
582,348.3571991,991.4248623,0.513706154
583,348.6746522,992.4760433,0.494440817
584,349.6222051,992.9521974,0.475966914
585,350.3067916,993.5425449,0.458552254
586,351.0513023,994.2801894,0.450271219
587,351.6239113,994.9065717,0.438260302
588,352.4062257,995.2280156,0.420818855
589,353.2204724,995.5850394,0.41198888
590,353.7382239,996.8633205,0.401041346
591,354.8152516,996.6533019,0.386990532
592,355.3708399,997.5792393,0.380009097
593,356.0734375,997.9609375,0.373241192
594,357.117284,997.9459877,0.359049855
595,357.7232502,998.7988737,0.354398247
596,358.318818,999.3841369,0.351868799
597,359.3440945,999.8724409,0.347428226
598,359.7942354,1000.533227,0.337098908
599,360.6028823,1000.883907,0.323205993
600,361.3880952,1001.561111,0.313522293
601,362.3492063,1001.457937,0.313634183
602,363.0332792,1001.532468,0.310261299
603,363.9832776,1001.388796,0.296904051
604,364.5210356,1002.393204,0.289960393
605,365.1673571,1002.743993,0.287754572
606,366.1988156,1002.736041,0.282646464
607,367.0116861,1003.112688,0.275541025
608,367.5573637,1003.615948,0.277151028
609,368.3461538,1003.596154,0.266021493
610,369.0458478,1004.655709,0.261803387
611,369.9264069,1004.172294,0.256318646
612,370.8207885,1004.353047,0.248456101
613,371.4153578,1004.776614,0.248210003
614,372.2562278,1004.560498,0.244990714
615,373.1836007,1004.294118,0.2421252
616,373.8681319,1004.692308,0.235054974
617,374.616451,1004.995379,0.230239476
618,375.4537988,1004.845996,0.227258584
619,375.8974093,1005.949223,0.22489382
620,376.7042802,1005.547665,0.225309195
621,377.8530702,1004.26864,0.21819231
622,378.6546053,1004.327851,0.217933442
623,379.4141876,1004.577803,0.210466865
624,380.1581921,1004.364972,0.212642615
625,380.9952438,1003.919144,0.205552173
626,381.7418577,1003.751508,0.203751244
627,382.4581281,1003.678571,0.202354126
628,383.3593947,1003.411097,0.199858985
629,384.0561941,1003.346105,0.199032369
630,385.0575636,1001.88755,0.193497829
631,385.82861,1001.74359,0.1930937
632,386.4586777,1002.146006,0.191784539
633,387.3277311,1001.477591,0.185250527
634,388.2834302,1000.847384,0.188576306
635,388.9705015,1000.573746,0.184112843
636,389.7088608,1000.039557,0.185020368
637,390.2327448,1001.080257,0.185079891
638,391.2569444,998.9565972,0.179923009
639,391.9664311,998.9452297,0.180495407
640,392.6238698,999.0018083,0.18194478
641,393.00982,999.9525368,0.184202835
642,393.8143322,999.5439739,0.182820385
643,394.3456998,1000.482293,0.180463157
644,395.2980132,998.7384106,0.182747558
645,395.6782178,999.9917492,0.183899467
646,396.4369628,1000.113181,0.18084797
647,397.1977124,999.3235294,0.183477799
648,397.8521463,999.8521463,0.185244494
649,398.4786885,999.5131148,0.182212837
650,399.2699187,998.7495935,0.18325959
651,399.7345972,999.7598736,0.18432689
652,400.3314607,999.5126404,0.185178955
653,401.2041139,999.0617089,0.18511821
654,401.8587127,998.9152276,0.187671784
655,402.9756098,997.5772358,0.186638783
656,403.3394886,997.9772727,0.190751833
657,404.1186441,997.3466872,0.189035335
658,404.5534506,998.3328823,0.192516034
659,405.3969144,997.6900421,0.198971883
660,406.2946058,996.3457815,0.193810951
661,406.9535865,995.7960619,0.199544039
662,407.5430917,996.0314637,0.194139374
663,407.98,996.3528571,0.198112643
664,408.5302826,996.0672948,0.20707789
665,409.5485714,995.2371429,0.204761345
666,410.279661,995.2584746,0.211129715
667,410.9592124,994.5794655,0.214630514
668,412.7114846,990.5406162,0.192142011
669,412.3342939,994.0230548,0.221287666
670,413.5788235,991.3058824,0.213546408
671,413.6070381,993.4281525,0.22663813
672,414.8516854,991.2629213,0.222921582
673,418.3798077,977.7884615,0.356143303
674,419.7513812,976.4364641,0.333148681
675,417.0742574,989.200495,0.235552472
676,419.4560669,979.4769874,0.430728848
677,421.8121547,976.7624309,0.346178069
678,419.1318408,988.221393,0.25593981
679,423.2586207,977.0344828,0.286017735
680,423.603352,977.4301676,0.337927447
681,421.0254453,988.1933842,0.266197705
682,424.1008403,979.3697479,0.333366923
683,425.0754717,978.3113208,0.393226882
684,426.0330189,978.9669811,0.172688818
685,426.8292683,978.3317073,0.167970569
686,424.7934783,985.6521739,0.316311903
687,429.2409639,978.5783133,-0.030911019
688,425.860274,985.4684932,0.34288893
689,430.4309392,979.3535912,-0.052848052
690,431.2046784,979.5438596,-0.083760032
691,431.9698795,980.2951807,-0.027127223
692,431.1286307,980.4564315,-0.035606766
693,433.7676056,981.3591549,-0.009649512
694,433.0599078,980.2211982,-0.173445568
695,430.4772727,982.6875,0.282833827
696,434.3794643,980.5357143,-0.17319433
697,434.9251101,980.3524229,-0.256842352
698,432.5686275,981.8795518,0.025913811
699,436.3466667,980.1822222,-0.29407703
700,433.5755968,980.9681698,-0.3468594
701,434.3252688,980.4596774,-0.429598378
702,438.3539823,980.4557522,-0.291638716
703,438.8333333,980.2666667,-0.292321306
704,434.4412607,976.3553009,-0.361094645
705,440.2897959,980.7020408,-0.271901911
706,437.4884319,978.1131105,-0.477970323
707,436.5218618,974.9619182,-0.343744094
708,438.8341709,977.4246231,-0.418226619
709,438.0041783,973.9623955,-0.34481136
710,443.3371212,980.4810606,-0.278181234
711,440.6221662,976.581864,-0.42562858
712,440.8787879,974.8951049,-0.410027779
713,440.2755376,971.5241935,-0.33140062
714,440.8831169,970.9233766,-0.326263978
715,441.4007682,969.943662,-0.318698589
716,441.9705506,969.3585147,-0.314328895
717,442.8777349,969.4066924,-0.311586263
718,443.8323699,969.2312139,-0.329358192
719,444.0625,968.01375,-0.304624003
720,451.1813953,984.944186,-0.194943134
721,445.2927461,967.0854922,-0.300232561
722,446.3943396,967.5283019,-0.307706523
723,453.5291262,985.9320388,-0.199641809
724,447.7739464,967.1187739,-0.300701602
725,455.3588235,987.5176471,-0.196656479
726,455.5544554,985.5544554,-0.224238689
727,448.9336671,964.4430538,-0.273333114
728,450.213628,965.3480663,-0.283503768
729,450.2729529,963.4094293,-0.271710107
730,451.5941748,964.838835,-0.278853892
731,451.5793358,962.8929889,-0.263190839
732,452.2159509,962.6895706,-0.270141395
733,452.8296837,962.4233577,-0.258014865
734,453.1403302,960.821934,-0.263735986
735,454.0675,961.24625,-0.269020439
736,454.8123487,961.2082324,-0.262353158
737,455.3382716,960.4962963,-0.265256191
738,455.8904934,960.0108303,-0.263703295
739,456.5302843,959.9381953,-0.25871855
740,456.9125749,958.8191617,-0.254347779
741,457.8822086,959.6969325,-0.255460469
742,458.4291444,959.1751337,-0.259317186
743,459.1830417,959.0215343,-0.255755618
744,459.9668966,959.3655172,-0.255454237
745,460.4766484,958.7458791,-0.2554788
746,460.8327273,957.6,-0.254961044
747,461.4052369,957.4376559,-0.257395275
748,462.2751397,957.9567039,-0.255917179
749,462.8901252,957.5493741,-0.255179584
750,463.8085106,958.564539,-0.256539426
751,464.5981453,958.7326121,-0.256057535
752,465.1937984,958.551938,-0.256224322
753,466.0708899,959.2880845,-0.255646207
754,466.6723338,958.8068006,-0.254383812
755,467.5136364,959.5378788,-0.253867457
756,467.9851974,958.7960526,-0.255009168
757,468.5460317,958.2666667,-0.256359406
758,469.0701493,957.8761194,-0.253706169
759,469.7168,957.9648,-0.256435615
760,470.5041736,958.4340568,-0.262224557
761,471.2816901,958.8716745,-0.263224475
762,471.6649746,957.9915398,-0.265347254
763,472.1864139,957.5007899,-0.261200593
764,473.148398,958.9966273,-0.264783816
765,473.461794,957.9003322,-0.266555346
766,473.9712352,957.751269,-0.268571724
767,474.7370184,957.9731993,-0.272253472
768,475.2115059,957.7631134,-0.273440032
769,475.5140625,956.4296875,-0.272108016
770,476.442053,957.7930464,-0.273944173
771,476.9198664,957.2621035,-0.277433024
772,477.632716,957.279321,-0.279592817
773,477.9917492,956.9339934,-0.280237706
774,478.5628059,956.7226754,-0.283651397
775,479.1872,956.5936,-0.282174326
776,479.8897168,956.8002981,-0.284316308
777,480.3715125,956.1013216,-0.284677072
778,481.3196481,957.2683284,-0.293607784
779,481.6734694,956.3046647,-0.295421042
780,482.3864943,956.8793103,-0.294880805
781,482.95,956.5970588,-0.298664445
782,483.427972,956.3748252,-0.299592159
783,484.3694722,957.1512126,-0.304444811
784,485.1393862,957.6086957,-0.30830071
785,485.4962217,957.0793451,-0.308943079
786,486.2,957.5918919,-0.314223684
787,487.0037175,958.3643123,-0.321771667
