FrameNo,Row,Column,Angle
74,66.06,785.035,-0.30302812259738954
75,67.21969696969697,784.6010101010102,-0.3204300325792809
76,68.04020100502512,783.9371859296482,-0.34257663753499307
77,69.28540772532189,784.1480686695279,-0.3555078753285299
78,70.59081836327346,784.878243512974,-0.3885788065461497
79,71.35450819672131,784.6700819672132,-0.40351185660036504
80,72.7455268389662,784.5546719681909,-0.4367801120512336
81,73.81983805668017,785.0668016194331,-0.4735944756034649
82,74.86897880539499,785.0886319845857,-0.49403760760259013
83,76.1953125,785.32421875,-0.523456952139621
84,77.05166051660517,785.4151291512915,-0.5335299279644046
85,78.2795497185741,785.780487804878,-0.5866498046671194
86,79.22142857142858,785.8821428571429,-0.6202043667994549
87,80.14336917562724,786.1863799283154,-0.6674453142778676
88,81.41187384044527,786.5009276437847,-0.708617223824695
89,82.57220216606498,786.9296028880866,-0.762777301749541
90,83.71833333333333,787.5266666666666,-0.8161933208668471
91,84.5528596187175,787.6117850953207,-0.8627952845085967
92,86.11295681063123,788.0747508305648,-0.9610256354428166
93,87.03660565723794,788.8435940099833,-1.0104559777552862
94,87.84026622296173,789.2013311148087,-1.093704263948844
95,89.21311475409836,789.9180327868853,-1.1762019176776617
96,90.3006329113924,790.6091772151899,-1.304513973329504
97,91.01386748844376,791.2758089368259,-1.43393250956567
98,92.52623456790124,792.0586419753087,-1.5487467632335055
99,93.67484662576688,792.6365030674847,1.4625261530612736
100,94.59796806966618,793.5428156748911,1.3437431438561562
101,96.0058394160584,794.341605839416,1.196900143114166
102,97.4900849858357,795.0764872521247,1.1162716654705578
103,98.31994645247657,795.9825970548862,1.041141548609298
104,99.86332882273342,796.7401894451962,0.9149631419871371
105,101.27906976744185,797.4172366621067,0.8557142245192734
106,102.6671052631579,798.2394736842106,0.814474173607596
107,103.94605263157895,799.0894736842106,0.7484478350914966
108,105.19201030927834,799.7396907216495,0.6908055626379355
109,106.66292134831461,800.6104868913858,0.6667768668978689
110,108.18090452261306,801.2261306532663,0.6054427693331638
111,109.37331701346389,801.982864137087,0.5721541004225282
112,110.71410891089108,802.8069306930693,0.5439618038959664
113,112.3997555012225,802.7176039119804,0.5100637066147222
114,113.6318347509113,803.8590522478736,0.5005385960347604
115,115.15096618357488,804.3707729468599,0.47994951878142966
116,116.16867469879519,805.1506024096385,0.44523716725248313
117,118.04923798358733,805.2907385697538,0.4299729169583345
118,119.26997578692495,806.1585956416465,0.40723210068883475
119,121.09704142011834,806.1289940828402,0.3831466708448107
120,122.25322391559203,806.799531066823,0.3567285129933131
121,123.98776009791922,806.9865361077111,0.34367002653501055
122,125.45917159763313,807.1680473372782,0.3270748258274532
123,126.84946236559139,807.5471923536439,0.30608481800711634
124,128.48759305210916,807.8436724565756,0.29420173739698124
125,129.7447335811648,808.2354399008674,0.2939715052896872
126,131.4125159642401,808.1941251596425,0.27310670661989156
127,132.9711417816813,807.5658720200753,0.25996645216194697
128,134.34615384615384,808.5717948717949,0.2473240047862985
129,135.74967234600263,808.6028833551769,0.23023835127822836
130,137.65359477124184,807.7032679738562,0.23983092402436174
131,138.76657824933687,807.8554376657825,0.21736899207807925
132,140.56005586592178,807.5572625698323,0.19808017912653722
133,142.17055393586006,807.4402332361516,0.1836064647128171
134,143.71449925261584,807.1733931240658,0.17677905847350706
135,145.15844544095665,806.2615844544096,0.170551827196062
136,146.55882352941177,806.8049535603715,0.15586416848097864
137,148.17405582922822,805.4137931034483,0.14456569303834235
138,149.45315161839864,805.2793867120954,0.13484434600993334
139,150.79606440071558,805.3685152057245,0.12907536941582332
140,152.51325757575756,804.6136363636364,0.10940972755175435
141,153.64426877470356,803.9189723320158,0.0957915897560512
142,155.24193548387098,803.0846774193549,0.09041574330662064
143,156.7622950819672,802.2868852459017,0.07991175094073191
144,157.96644295302013,801.682326621924,0.08685931566033624
145,159.34174311926606,801.1880733944954,0.08915118114040965
146,160.756038647343,800.7777777777778,0.08179676415440852
147,162.45416666666665,799.2625,0.002173320960889925
148,163.93396226415095,798.4811320754717,-0.015839928921947907
149,164.7094017094017,798.031339031339,-0.006372375380435921
150,166.11076923076922,798.1476923076923,0.05490914241526405
151,167.83227848101268,796.7784810126582,0.07201939719537732
152,169.06211180124222,794.8322981366459,-0.0724430883328693
153,170.296875,795.60546875,0.09866685209342821
154,171.32377049180326,794.938524590164,0.07107133345903972
155,172.609375,793.640625,0.10367245548790004
156,173.96296296296296,792.8306878306878,0.1761557678167809
157,175.14832535885168,792.3540669856459,0.2841750391808196
158,176.49411764705883,790.4764705882353,0.2829095381681311
159,177.72254335260115,789.5722543352601,0.2780621539568675
160,178.91566265060243,788.5,0.2642933007259626
161,180.21428571428572,787.3112244897959,0.2850024012673646
162,181.15151515151516,787.2272727272727,0.23747363491344015
163,182.22826086956522,786.445652173913,0.20058980947450036
164,183.2319587628866,785.8298969072165,0.17699739207981258
165,184.45744680851064,784.3670212765958,0.14978903181979897
166,185.8019801980198,783.6386138613861,0.11591767176446707
167,186.7019230769231,783.8173076923077,0.09213192830602897
168,187.6422018348624,783.1146788990826,0.09098374090036772
169,188.75586854460096,783.056338028169,0.06643324389487365
170,190.05042016806723,780.7016806722689,0.042881858315894535
171,191.0557768924303,781.2270916334661,0.02045650269646052
172,192.05905511811022,780.8897637795276,0.013433526901547754
173,193.0323886639676,779.2469635627531,0.008968747649057016
174,193.92519685039372,778.8464566929134,-0.011046662137004844
175,194.9728813559322,779.7694915254237,-0.014602520180343987
176,196.14331210191082,777.8407643312102,-0.024710230318662058
177,196.95882352941175,777.3558823529412,-0.051376624178977245
178,198.00852272727275,777.1193181818182,-0.07011762162356724
179,198.70642201834863,776.7461773700306,-0.0697647817672714
180,199.71987951807228,775.8614457831325,-0.08871019593840483
181,200.56586826347305,774.9491017964071,-0.10927467058263496
182,201.55240793201133,774.8923512747875,-0.11331353245562593
183,202.34579439252337,774.6752336448599,-0.12959109828998902
184,203.46408839779005,775.0939226519337,-0.1398069296671771
185,204.4318181818182,775.3795454545455,-0.15938561389237782
186,205.17721518987344,774.2784810126582,-0.17879246908512192
187,205.98494623655915,773.7784946236559,-0.1895064888592758
188,206.87834549878346,773.5596107055961,-0.2057850520071428
189,207.84867075664621,774.2985685071575,-0.21850854961565672
190,208.26156941649901,773.0643863179074,-0.24489464982334316
191,209.4818548387097,774.1209677419355,-0.2485579193746307
192,210.30588235294118,774.2901960784313,-0.27699294945538494
193,211.352,774.114,-0.2941857364224185
194,212.34496124031008,774.6162790697674,-0.31491692518930914
195,213.07662835249042,774.3007662835249,-0.3330662658855973
196,213.9961464354528,774.4605009633912,-0.3590865537055446
197,214.6889692585895,774.8426763110308,-0.37488231173794384
198,215.7415329768271,775.4616755793227,-0.4021695404439296
199,216.43527204502814,775.1482176360225,-0.44632784845706164
200,217.15300546448088,774.91985428051,-0.46543218304062905
201,218.2537037037037,775.7907407407407,-0.5073036116926958
202,218.8747663551402,775.8710280373832,-0.5406253355208718
203,219.95933456561923,776.637707948244,-0.5710797882319716
204,220.73283858998144,776.9424860853433,-0.6102412632973806
205,221.54595588235293,777.3382352941177,-0.657176510075562
206,222.31922398589066,777.9118165784832,-0.7456637385411387
207,223.62003454231433,778.6891191709844,-0.7673250758754443
208,224.516295025729,779.4631217838765,-0.8397746385881545
209,224.89845094664372,779.7573149741825,-0.9474408356122712
210,225.72347826086957,780.3356521739131,-1.0505830150922146
211,226.64476021314385,780.8969804618117,-1.1756289938742528
212,228.0686498855835,782.2929061784897,-1.4347113140445684
213,228.23389830508475,782.8271186440678,1.5151019401990529
214,229.35108153078204,783.6738768718802,1.266660428670865
215,230.04934210526318,784.7088815789474,1.0774044885975784
216,231.7760532150776,785.9268292682926,0.9698341256724718
217,232.20528771384136,786.4634525660964,0.8136990250633455
218,233.19938176197837,787.4265842349305,0.7608362049687101
219,234.93167701863354,788.5051759834369,0.7235814609708241
220,235.57814871016691,788.9742033383915,0.6355497191675016
221,236.5560471976401,790.3879056047198,0.5879699949138406
222,237.54545454545456,791.0357675111774,0.5374002685069358
223,238.91218130311614,791.3881019830028,0.5219590691639139
224,239.72294372294374,792.8946608946609,0.4651172543697313
225,240.93868613138687,793.3445255474453,0.44372832800361767
226,242.33895921237695,793.9704641350211,0.4235601399717524
227,243.42696629213484,795.0182584269663,0.39079269479700657
228,244.3932584269663,795.4747191011236,0.3716172155585745
229,245.42151162790697,796.5843023255813,0.33818338995075736
230,247.0320232896652,796.1339155749636,0.31912270088286687
231,247.99555555555554,797.5407407407407,0.29568037369135214
232,249.36075036075036,797.6277056277056,0.2881911243185719
233,250.3515731874145,797.9753761969904,0.2519450745073451
234,251.45809248554912,798.9826589595376,0.2487254802940919
235,253.09720176730485,798.419734904271,0.24044779979242653
236,254.2109038737446,799.2769010043041,0.21158529370790452
237,255.3205317577548,799.2304283604136,0.20997878352023097
238,256.7676470588235,798.9147058823529,0.181652649420204
239,257.93146417445485,799.7102803738318,0.17538196912754297
240,259.1317365269461,798.9296407185628,0.15828310275705365
241,260.5340729001585,799.2282091917591,0.15432677273203044
242,261.8652597402597,798.3214285714286,0.16442672113714024
243,262.84779050736495,798.4975450081834,0.132816245690129
244,264.12919463087246,797.4194630872483,0.09805605265115279
245,265.2393162393162,798.2957264957265,0.10395958695911978
246,266.6507352941177,797.0202205882352,0.08554667141497284
247,267.9342105263158,795.4511278195489,0.09190229446215671
248,269.25925925925924,795.95,0.061976613246680544
249,270.12948207171314,795.9083665338645,0.04969158368503089
250,271.4066390041494,794.0228215767635,0.03487558792367078
251,272.4466230936819,794.6318082788671,0.05582609207640237
252,273.7139534883721,793.7674418604652,0.034885303001608386
253,274.5735294117647,793.2083333333334,0.014931343096709676
254,275.5459183673469,792.9285714285714,0.001488492320865228
255,276.75257731958766,791.2396907216495,-0.012534514561476503
256,277.93142857142857,790.7885714285715,-0.0025788617561645936
257,278.8384401114206,790.050139275766,-0.00779171880105608
258,279.9879518072289,789.1265060240964,-0.06774545188674973
259,281.0493421052632,788.2565789473684,-0.025996798856284763
260,281.9155844155844,787.5941558441558,-0.04882406269130764
261,282.99270072992704,786.6970802919708,-0.038797173739863564
262,283.796875,785.28125,-0.08907448977724965
263,285.25531914893617,785.2510638297872,-0.022230496651635116
264,286.1589743589744,784.1025641025641,0.003353427177129072
265,287.1129943502825,783.2033898305085,0.06956812442984538
266,288.0639534883721,782.2616279069767,0.07173558139233034
267,288.55855855855856,781.072072072072,0.09273585418570807
268,290.12359550561797,780.1460674157304,0.14774179306097718
269,291.00558659217876,778.3966480446927,0.18898593363116187
270,291.71270718232046,777.8729281767955,0.17224519436925897
271,292.5376344086021,776.9516129032259,0.15267169410961012
272,293.46039603960395,776.1683168316831,0.13852426203671608
273,294.32535885167465,775.2918660287081,0.1087307535724776
274,295.0325581395349,775.0790697674419,0.08031314609401745
275,295.92105263157896,773.3157894736842,0.06825642667237362
276,296.7739130434783,773.4956521739131,0.049672309361595085
277,297.52016129032256,772.5685483870968,0.04008552835982838
278,298.3011583011583,772.1196911196911,0.015432862692389937
279,298.9730769230769,771.1730769230769,0.00964038701846912
280,299.86988847583643,769.4386617100372,0.0015421868626140818
281,300.5891238670695,770.4803625377643,-0.011944202274175034
282,301.15750915750914,768.4212454212454,-0.034973540112149905
283,302.08852459016396,767.872131147541,-0.05148444714115743
284,302.9283489096573,768.1619937694704,-0.05019238015280855
285,303.6768292682927,766.6006097560976,-0.07467423164330232
286,304.2966360856269,766.4587155963303,-0.08259614316907507
287,304.86005830903787,766.0495626822158,-0.08607136839813444
288,305.54237288135596,765.6638418079096,-0.08876454227958065
289,306.35555555555555,766.0972222222222,-0.10434983405069048
290,307.1325966850829,765.4585635359116,-0.12288149034079959
291,307.8218085106383,765.0106382978723,-0.13320266352720317
292,308.5260663507109,764.6872037914692,-0.14476117697417884
293,309.19959677419354,765.5221774193549,-0.1375875671423338
294,309.6311637080868,765.2544378698225,-0.16786898373874964
295,310.4247967479675,765.1056910569106,-0.1779651577228137
296,311.326968973747,764.9188544152745,-0.2032501545865885
297,311.7013888888889,763.9606481481482,-0.2147637165093651
298,312.4227272727273,764.4318181818182,-0.22953019781571857
299,313.1287878787879,764.5757575757576,-0.24504939175623125
300,314.0637450199203,766.1593625498008,-0.24867214175423488
301,314.0508806262231,764.050880626223,-0.2914962999693436
302,315.11787819253436,764.8330058939097,-0.3038199641419444
303,315.99025341130607,764.9629629629629,-0.32082919554397765
304,316.506,765.572,-0.3325782415383396
305,317.683615819209,766.1996233521658,-0.3703202664822325
306,318.2948207171315,766.6394422310757,-0.3976214184455817
307,318.7928436911488,766.9717514124294,-0.40610836064522926
308,319.07899807321775,766.5414258188824,-0.44300208311310096
309,319.8429906542056,766.8504672897196,-0.48806301024927873
310,320.8833992094862,767.8162055335969,-0.5154842401191384
311,321.031007751938,768.0329457364342,-0.570591676869452
312,321.93528183716074,768.4175365344468,-0.6035309387396653
313,322.7134146341464,768.8719512195122,-0.6165401288935999
314,323.19879518072287,769.6646586345381,-0.7178764300357915
315,323.6897880539499,770.3063583815028,-0.7706380507095439
316,331.491935483871,776.4354838709678,-1.5109727391702763
317,326.1067708333333,772.1510416666666,-1.0556435092295133
318,326.5333333333333,772.8282051282051,-1.3478997734111737
319,327.34883720930236,773.7209302325582,1.4466615176296345
320,327.8378870673953,774.4717668488161,0.9772815910297395
321,328.91560102301787,775.6010230179028,0.9154553258173764
322,329.31053604436227,776.6950092421441,0.6861224781648283
323,329.92660550458714,777.8880733944954,0.6184016151500605
324,331.1933701657459,778.5653775322284,0.5810753297933239
325,332.0920138888889,779.4791666666666,0.5175921536721171
326,332.8125,780.3680555555555,0.4838359097692044
327,333.7892976588629,781.7842809364548,0.43700418674118113
328,334.4869565217391,782.4660869565217,0.41360781794211393
329,335.6760330578512,783.6314049586776,0.36997955135540034
330,336.49430894308944,784.079674796748,0.3601385015850823
331,337.43197278911566,784.797619047619,0.3301141370206975
332,338.4974704890388,785.4873524451939,0.3042260822997069
333,339.1578073089701,786.6611295681063,0.28769475217419666
334,340.3636363636364,787.0405844155844,0.27259496942264216
335,341.3936,788.0112,0.24105066949376128
336,342.3489932885906,788.2869127516778,0.23414803179929572
337,343.3620981387479,788.8714043993232,0.22249709184322208
338,344.055,789.8066666666666,0.20046133565709237
339,346.51202749140896,787.9175257731958,0.17641890271412153
340,346.4850088183422,789.7936507936508,0.16373472704484843
341,347.7462962962963,789.1592592592592,0.16505608890404042
342,348.6042402826855,789.7491166077739,0.15994128757470422
343,349.7135416666667,789.7899305555555,0.1357731075345167
344,350.5070671378092,789.7791519434629,0.13561794327634957
345,351.82374100719426,789.3669064748201,0.11573286333202139
346,352.6901408450704,789.830985915493,0.10219399512372884
347,353.65085388994305,789.673624288425,0.08905090085670123
348,354.92857142857144,788.9801587301588,0.08440980503617909
349,355.6570247933884,789.1115702479339,0.07427779962908769
350,356.6744186046512,787.8333333333334,0.07763816858174291
351,357.7784552845528,788.4715447154472,0.05258309075827044
352,358.9896480331263,787.6832298136646,0.053606962284306996
353,359.6288209606987,787.731441048035,0.04103467271842548
354,360.95726495726495,787.3376068376068,0.029862096588074417
355,361.59669811320754,786.4622641509434,0.022029344716190308
356,362.60176991150445,785.0265486725664,0.018700029959192753
357,363.4910025706941,784.241645244216,0.021737503632408447
358,364.3945578231293,784.6972789115646,-0.002935277826346378
359,365.0703363914373,783.4892966360857,-0.019095344831595997
360,366.1353846153846,781.4246153846154,-0.013822594541064392
361,366.75694444444446,781.3611111111111,-0.011444266621022447
362,367.77566539923953,780.8250950570342,-0.02250764891684275
363,368.43612334801765,780.0528634361233,-0.04539386218012465
364,369.53777777777776,779.0,-0.048375714090742296
365,370.3813953488372,778.7395348837209,-0.03025906057847132
366,370.9117647058823,777.5147058823529,-0.067573261159691
367,371.93220338983053,774.8983050847457,-0.1355526831891473
368,372.6127167630058,775.9942196531792,-0.07198578861186763
369,373.25,775.1369047619048,-0.043403387296678336
370,374.255033557047,774.9261744966443,0.0077382280500798515
371,375.12587412587413,773.1048951048951,-0.008029996722790306
372,375.60625,772.35625,0.02749051577740397
373,376.30872483221475,770.510067114094,0.10897444931290688
374,377.16556291390725,769.7284768211921,0.06440039469825393
375,377.840490797546,768.8895705521472,0.06495715752166845
376,378.8277777777778,767.8944444444444,0.055010092484636355
377,379.10526315789474,768.2781954887218,0.04511848118190766
378,379.8360655737705,766.8306010928961,0.03526261211776334
379,380.66995073891627,765.5369458128079,0.021797092905503124
380,381.3546798029557,765.4926108374384,0.002040885577202448
381,382.05555555555554,764.7037037037037,-0.004257247300705731
382,382.7843866171004,762.9739776951673,-0.013016791725416215
383,383.56370656370655,761.918918918919,-0.027541645464182755
384,384.1155378486056,762.5816733067729,-0.03583050835898076
385,384.86851211072667,762.2179930795847,-0.05370173096817259
386,385.3103448275862,761.3065134099617,-0.0493414893470386
387,385.97879858657245,760.3321554770318,-0.06913770120308647
388,386.5925925925926,759.6599326599327,-0.080032805335599
389,387.12333333333333,759.6266666666667,-0.07468210780392309
390,387.6907894736842,758.6743421052631,-0.08762442669511272
391,388.35403726708074,758.4347826086956,-0.10117533204180895
392,389.04024767801855,758.2848297213623,-0.1057730545942711
393,389.5028735632184,756.816091954023,-0.11428940955881668
394,390.2023460410557,756.624633431085,-0.12960901481480983
395,390.90084985835693,757.0169971671388,-0.13810193707200918
396,391.52957746478876,757.2225352112677,-0.14132270469030161
397,392.02412868632706,756.4289544235925,-0.15468445703263706
398,392.5275590551181,755.9186351706037,-0.16183928769474648
399,393.2755905511811,756.5669291338583,-0.17797307333404777
400,393.8467532467532,756.0935064935065,-0.18648401070049364
401,394.31909547738695,755.4723618090452,-0.19885798788488157
