FrameNo,Row,Column,Angle
86,13.94949494949495,787.4469696969697,0.22007101054438916
87,15.786319612590798,787.0121065375303,0.2198377381466171
88,17.57178526841448,787.358302122347,0.20506900703783568
89,19.302803738317756,786.4722741433022,0.17632334970882213
90,21.23374917925148,787.4550229809586,0.18057102900825778
91,23.10435931307794,786.655217965654,0.17516482901278735
92,25.186382393397523,786.5261348005502,0.15787176627117452
93,26.970813064628214,786.0305767894371,0.160211147654659
94,28.542422044960116,786.5337200870196,0.15535860164251566
95,30.244657332350773,786.1643330876934,0.13853327283905026
96,31.894423791821563,785.4624535315985,0.13357589507953924
97,33.563182527301095,785.5499219968799,0.130870724712927
98,35.3794498381877,785.3584142394822,0.12093023686957875
99,37.102310231023104,785.6089108910891,0.11269399619121089
100,38.73734729493892,784.9816753926701,0.10651345122550901
101,40.44783715012723,784.2900763358779,0.09868507932329694
102,42.136237256719184,783.7025023169601,0.09654943196419069
103,43.617502458210424,783.322517207473,0.09306961488054494
104,45.233097880928355,783.0030272452069,0.08946523736016644
105,46.94230769230769,782.65991902834,0.09109046334448682
106,48.55955056179775,781.8314606741573,0.07939142493797885
107,49.84529147982063,781.652466367713,0.07654627628480114
108,51.76293622141998,780.8507821901323,0.07671350805735318
109,53.22617534942821,780.3875476493012,0.07536611577350015
110,55.0093085106383,780.1648936170213,0.06091179952213742
111,56.514637904468415,779.8967642526965,0.06789643167031549
112,57.958193979933114,779.3010033444816,0.06828339359122905
113,59.696875,778.1015625,0.0738522400499788
114,60.88045540796964,778.326375711575,0.06202332762592775
115,62.56581196581197,777.9623931623931,0.06053401303162796
116,63.72093023255814,777.4669051878354,0.08752148312912487
117,65.46035242290749,777.0198237885463,0.07137832691241618
118,66.486,776.44,0.05712265730655411
119,68.27684964200478,776.0477326968974,0.08679476999280211
120,69.96578947368421,775.2736842105263,0.09320539420423263
121,71.41643835616438,774.6520547945206,0.10186370197171954
122,72.80346820809248,774.2312138728323,0.1281540410506294
123,74.4327485380117,773.3713450292398,0.14281083841416964
124,75.77910447761194,772.1910447761194,0.15465754071703983
125,77.05325443786982,770.8520710059172,0.15769494036903872
126,78.87301587301587,769.1809523809524,0.13817869102944264
127,80.29581993569131,767.7942122186495,0.1405338342092941
128,81.41944444444445,767.2305555555556,0.12190834792981221
129,82.9489247311828,765.9731182795699,0.09662619155528494
130,84.10732984293193,766.2094240837696,0.08137717978295927
131,85.64577656675749,764.9782016348773,0.06979009250378339
132,86.70098039215686,764.8504901960785,0.06404537270244788
133,88.18345323741008,764.5,0.04310781091793413
134,89.2981220657277,762.8497652582159,0.04401801613122372
135,90.50403225806451,762.2540322580645,0.026356927365064863
136,91.875,761.2883064516129,0.016433875691553988
137,93.17248062015504,760.203488372093,0.00784106644580717
138,94.29520295202953,759.7232472324723,-0.008532439631671397
139,95.32974910394265,759.0663082437276,-0.01038671394749145
140,96.54054054054055,758.596525096525,-0.026187545369610783
141,97.70772058823529,758.0128676470588,-0.03199271947568197
142,98.92834890965732,756.9501557632399,-0.044802909511482664
143,100.08769230769231,756.28,-0.055094356526679614
144,101.0979228486647,755.2848664688428,-0.05555413412598672
145,102.08739255014326,755.3853868194842,-0.06273165632612811
146,103.348367029549,754.6827371695178,-0.07490392037356643
147,104.42447129909365,754.6404833836858,-0.07887776406609101
148,105.33137829912023,753.192082111437,-0.09299137537536527
149,106.50210378681626,753.2959326788218,-0.09915832948784997
150,107.50877192982456,752.6113360323886,-0.11313654332395673
151,108.55352798053528,753.3357664233577,-0.1123661734256782
152,109.56036446469248,752.1104783599089,-0.12645359458495575
153,110.50111111111111,751.7666666666667,-0.13483508097634112
154,111.74746335963923,752.6989853438557,-0.14380870470744242
155,112.59452054794521,751.8767123287671,-0.14996875200995682
156,113.79405737704919,752.1803278688525,-0.16166721782357596
157,114.82880161127895,752.2557905337361,-0.17198617412575798
158,115.74047829937999,751.8281665190434,-0.17779767112783187
159,116.62264150943396,751.9778506972929,-0.18913903715623545
160,117.49177631578948,751.5493421052631,-0.20201660991670264
161,118.97079715864247,752.4254143646409,-0.20779037243136958
162,119.62751407884151,752.3491552695093,-0.22110172671749428
163,120.72918287937743,753.1579766536966,-0.22568826456598248
164,121.88464476699771,753.1466768525593,-0.23954450447199185
165,122.72408650260999,753.399701715138,-0.240684326137587
166,123.78854961832062,753.7251908396946,-0.267823555723814
167,124.8231534090909,754.2443181818182,-0.2671395820699844
168,125.4477390659748,753.9733135656041,-0.29522036718582845
169,126.49381818181818,754.0327272727272,-0.30685346592971413
170,127.83507462686568,755.6126865671641,-0.3148545876782111
171,128.741452991453,756.2913105413105,-0.32609370580803665
172,129.58069062720227,756.4038054968288,-0.35028964920812533
173,130.55338450802512,756.648988136776,-0.36509290784096193
174,131.77972027972027,757.9076923076923,-0.3852548858155538
175,132.51667801225324,758.8162014976174,-0.3867526013163101
176,133.79142857142858,759.1464285714286,-0.41917638145310515
177,134.84232081911262,759.8286689419795,-0.43978114767968957
178,135.89193083573485,760.4682997118156,-0.4615303064259648
179,136.42837559972583,761.0596298834819,-0.4883529112359283
180,137.44805653710247,761.799293286219,-0.5088668363308554
181,138.83599722029186,763.2293259207784,-0.539504971417658
182,140.1042274052478,764.283527696793,-0.5582453783710247
183,140.963545389564,765.2587562544675,-0.5869682386495895
184,141.9963768115942,765.9050724637681,-0.6383971227123556
185,142.81294452347083,767.0135135135135,-0.6626741964290385
186,143.52538787023977,767.7291960507757,-0.7126367298321916
187,144.93642857142856,768.6021428571429,-0.7478802613796416
188,145.89272858171347,769.9056875449965,-0.8090720489003445
189,146.85129310344826,771.0897988505747,-0.8694872582797547
190,147.85036496350364,772.1408759124088,-0.9603321159521834
191,149.0332861189802,773.2287535410765,-1.019404970294877
192,150.09429824561403,774.4042397660819,-1.138803085325579
193,150.97335307179867,775.5418208734271,-1.2911756409240003
194,152.0007315288954,776.7249451353329,-1.4507707242935577
195,153.17703703703705,778.1007407407408,1.4636026474814818
196,154.04734158776404,779.1201747997087,1.3195038554288099
197,155.54585798816566,780.5724852071006,1.1582921185690482
198,156.53313911143482,782.1019664967225,1.0695195802940989
199,157.75106382978723,783.0106382978723,0.9982752369633472
200,158.87723214285714,784.374255952381,0.9190313934820138
201,160.69739478957916,785.7575150300602,0.8628635760860988
202,161.77744209466263,786.9778449144007,0.8102554503127424
203,163.03826787512588,788.0936555891238,0.7626924665752576
204,165.18255033557045,791.0255033557047,0.7522173043485312
205,165.4688128772636,790.2062374245472,0.6868392565213032
206,168.24400564174894,792.5980253878703,0.6624420276456562
207,175.7073170731707,786.8219512195122,0.5575760670349182
208,171.18129496402878,793.8805755395683,0.58857411214636
209,178.85636856368563,786.1869918699188,0.49748566308120024
210,172.86768802228414,795.9526462395543,0.5489428287900779
211,181.21891891891892,786.1405405405405,0.4533335498280979
212,183.62738853503186,783.8535031847134,0.4185641336426549
213,173.72485632183907,799.5668103448276,0.46036997354610026
214,184.95738636363637,785.8721590909091,0.39416393654069054
215,176.43211678832117,800.4890510948906,0.43454075769156786
216,177.7507163323782,800.8875358166189,0.4140388720136846
217,186.17401960784315,791.3774509803922,0.36586339616775737
218,179.97285399853263,803.0748349229641,0.388685121673218
219,180.85424220449602,804.9108049311095,0.3760958647254011
220,182.61013215859032,804.2812041116006,0.36392478218359314
221,183.76429075511646,804.7522935779816,0.3590901519867587
222,184.77953348382243,805.8690744920993,0.3467126125360508
223,186.07936507936506,806.4769463340892,0.3301656604074551
224,187.29046898638427,806.8872919818457,0.32611062841531613
225,188.42879256965944,807.672600619195,0.313762247316447
226,189.90387596899225,807.8852713178295,0.300886892251029
227,191.14788732394368,807.9303599374022,0.2937918221338728
228,192.3944099378882,807.694099378882,0.2861971816976152
229,193.483844911147,808.5686591276252,0.28227272691934613
230,194.6128514056225,809.5060240963855,0.2682401944841023
231,195.98842018196856,809.0157154673284,0.2649880060935427
232,197.33390557939913,808.2326180257511,0.25483876076209344
233,198.64910790144435,808.5335598980458,0.2453648454203295
234,199.79024390243904,808.9180487804878,0.24355114962576518
235,201.33362910381544,807.9902395740905,0.2351599858968752
236,202.18865979381445,808.7051546391752,0.23273712419904563
237,203.39009287925697,808.7069143446853,0.22551685808076877
238,204.50757575757575,808.6179653679653,0.2214980978223202
239,205.6934065934066,808.7186813186813,0.21638890856204182
240,206.9539551357733,808.4144037780402,0.21109520622734634
241,208.35,807.3476744186047,0.204778695666989
242,209.1018711018711,807.2931392931393,0.20044278343179228
243,210.85803237858033,806.6027397260274,0.1981592809886368
244,211.77748691099475,806.3141361256545,0.1985786328221842
245,212.71108179419525,806.8179419525065,0.19689863887210535
246,214.12732474964236,805.6638054363376,0.19246595229741895
247,215.2043795620438,805.6014598540146,0.18441867904161408
248,216.44272445820434,804.9256965944272,0.18187043629492106
249,217.48878205128204,804.625,0.17754113609535122
250,218.59731543624162,804.1744966442953,0.17686048883807617
251,219.7989417989418,803.742504409171,0.17450863324471463
252,221.03413654618475,802.9216867469879,0.17292574762433863
253,221.81237911025147,803.348162475822,0.17821428128849226
254,222.96907216494844,802.6350515463918,0.171145807428637
255,224.39160839160837,801.4055944055945,0.16876231459923394
256,225.54228855721394,800.5199004975125,0.16447018674426137
257,226.44502617801047,801.4083769633507,0.16048634692881913
258,227.62784810126584,800.0430379746836,0.17239216097202661
259,228.63636363636363,800.5085227272727,0.16657193493738037
260,229.74064171122996,799.6657754010695,0.1691034100429981
261,230.68595041322314,799.5289256198347,0.15997223403035607
262,231.94169096209913,798.6209912536443,0.15762883591408555
263,232.9136212624585,798.5016611295681,0.16273977499665457
264,233.996875,797.75,0.16572531053663905
265,234.91379310344826,797.7862068965517,0.14653867345575897
266,235.9547038327526,797.8188153310105,0.16281165229188144
267,237.01013513513513,797.0067567567568,0.1567190617536405
268,238.2622950819672,796.896174863388,0.15013784680847875
269,239.36516853932585,796.4044943820224,0.14199439933137611
270,240.24858757062145,796.2937853107345,0.13716297381577594
271,240.96707818930042,795.3786008230453,0.10523042682728341
272,242.003984063745,793.8127490039841,0.06420989094504927
273,243.05533596837944,793.4703557312253,0.04884691562416834
274,244.21428571428572,792.5168067226891,0.008419920182370092
275,244.96800000000002,790.72,0.014185782079901264
276,245.89084507042253,790.1971830985915,-0.02837904416301672
277,246.70873786407768,789.2880258899677,-0.018631639510965324
278,247.64923076923077,788.3046153846154,-0.012324849323678198
279,248.42814371257487,787.4670658682635,-0.02448451211909999
280,249.5958005249344,787.8766404199475,-0.03307411319565051
281,250.42513368983958,786.120320855615,-0.030616597644431743
282,251.13365155131265,784.9427207637232,-0.024901068327839074
283,252.16279069767444,786.3255813953489,-0.037396908807088305
284,253.06712962962962,784.1967592592592,-0.03244336192805412
285,253.74782608695654,782.95,-0.03102856101139903
286,254.5944333996024,781.6222664015904,-0.035238692828005375
287,255.47531992687385,781.8208409506399,-0.04277993264982993
288,256.09716599190284,780.8987854251012,-0.0363219915672798
289,256.99284436493735,779.8837209302326,-0.03888450956326408
290,257.7310344827586,779.048275862069,-0.03931212223477802
291,258.7772357723577,777.9056910569105,-0.04303551345617756
292,259.3898305084746,777.919876733436,-0.04962633224357425
293,260.3138138138138,777.4114114114114,-0.054310566549870265
294,260.9348148148148,775.7688888888889,-0.052694925150646624
295,261.92917847025495,776.4787535410765,-0.058341887826594045
296,262.5063469675599,774.9647390691114,-0.056517297459867735
297,263.3455978975033,774.8423127463864,-0.06514077823481806
298,264.0496732026144,774.2496732026144,-0.07078180882983888
299,264.7675,774.585,-0.0708057015052722
300,265.5769230769231,774.2127403846154,-0.07632148493866422
301,266.1410404624277,773.2208092485549,-0.07414743717804784
302,267.0650684931507,773.5810502283105,-0.07786429248694945
303,267.4490740740741,772.4324074074074,-0.07955595294598605
304,268.67579408543264,773.1412924424973,-0.09121010350093901
305,269.3425827107791,773.1067235859125,-0.09201613609957715
306,270.1276150627615,773.097280334728,-0.09663576819636223
307,270.7305976806423,773.7493309545049,-0.09861549753368591
308,271.6669941060904,772.9990176817289,-0.10708273099978889
309,272.335945151812,772.5455435847209,-0.11434432834691993
310,273.03706823925864,773.2215669755686,-0.11700650393598198
311,273.557119205298,773.5389072847682,-0.12228090004655079
312,274.4103852596315,773.3752093802345,-0.12215017970797945
313,275.08948339483396,772.840405904059,-0.13781416793603402
314,275.7899361022364,773.9816293929713,-0.1366322187375243
315,276.62653562653566,773.8075348075348,-0.15336071816448205
316,277.237881508079,773.9811490125674,-0.15273369758255514
317,277.96762589928056,773.8309352517986,-0.15611817584011625
318,278.5547730829421,774.6510172143975,-0.16833340688271356
319,279.41186736474697,775.0828970331588,-0.17348868365244524
320,280.0675909878683,775.3448873483535,-0.1809446195970548
321,280.61171875,775.97578125,-0.1915831984964458
322,281.2145161290323,776.016935483871,-0.19729671897998932
323,281.97513597513597,775.8896658896659,-0.2096479338790741
324,282.8964174454829,777.1627725856698,-0.22369422056470956
325,283.4162679425837,777.2854864433812,-0.238934500770955
326,284.00079936051156,777.8505195843326,-0.24276522707944623
327,284.74839743589746,778.630608974359,-0.24486849216838596
328,285.55036855036855,778.9017199017198,-0.2673176184118784
329,286.40848585690514,780.283693843594,-0.2717753871055428
330,286.86650082918743,780.3565505804312,-0.2944432390965236
331,287.73036437246964,781.2987854251012,-0.3018744902889427
332,288.38169826875514,781.6949711459192,-0.3120006188742047
333,289.2178301093356,782.7275021026072,-0.3242845681936509
334,289.77740303541316,783.6298482293423,-0.35213932976128365
335,290.5201026518392,784.2745936698033,-0.36653032591895207
336,290.9754028837998,784.4987277353689,-0.3847426013146732
337,291.745438748914,785.9226759339705,-0.4073085619544016
338,292.27081507449606,786.0946538124452,-0.42501358186272453
339,292.9751773049645,787.1985815602836,-0.4486664625011574
340,293.75925925925924,788.1146384479717,-0.4896383191944024
341,294.425,789.1314814814815,-0.5125750129656125
342,294.9962790697674,789.8437209302326,-0.5346286580550051
343,295.8559479553903,791.2899628252788,-0.527081695260746
344,296.5904761904762,791.8171428571428,-0.6008138280007016
345,297.50380228136885,792.7357414448669,-0.6222407423123282
346,297.9640151515151,793.6325757575758,-0.6698645493357709
347,298.81404174573055,794.9535104364327,-0.8217228516960474
348,299.5718336483932,796.1049149338374,-0.9502811190533861
349,299.67112810707454,797.0162523900574,1.4919630880365105
350,300.76770538243625,798.1406987724268,0.9609563262007926
351,301.543842364532,799.1862068965518,0.9043186063804064
352,302.27572815533983,800.252427184466,0.8382142632333287
353,302.8499025341131,801.4005847953216,0.7576903127816547
354,303.6317335945152,802.2654260528893,0.7313596524879995
355,304.2991202346041,803.6539589442815,0.7137624285652557
356,305.5019801980198,804.3396039603961,0.6933107779669808
357,305.7992240543162,805.807953443259,0.6600368643580906
358,306.730694980695,806.6457528957529,0.6059114552938573
359,307.8209099709584,807.5217812197483,0.5992417025009492
360,307.9742063492064,809.0922619047619,0.5635037822911924
361,308.8341463414634,809.9024390243902,0.5338043957317297
362,309.69223300970873,810.8592233009708,0.5323917737955145
363,317.9127516778524,803.8758389261745,0.46247108030591716
364,311.46272991287515,812.2778315585673,0.4874494439938964
365,318.6093294460641,805.9154518950437,0.44348632618464895
366,312.8459273797841,814.4200196270854,0.44458627167991843
367,319.6289855072464,807.5246376811594,0.4128551202155283
368,314.6787819253438,815.8398821218075,0.42227185596147976
369,322.96907216494844,803.553264604811,0.36838548549080685
370,322.67173252279633,806.3890577507599,0.3743215741692637
371,317.02054794520546,818.4050880626223,0.38458971609953835
372,324.39869281045753,806.2254901960785,0.35349848710031034
373,324.51671732522794,808.2796352583587,0.34046758506692293
374,327.2342007434944,803.2267657992566,0.3260659878133448
375,320.43659244917717,820.947725072604,0.3412300280747251
376,327.9113475177305,805.6418439716313,0.3084487161810367
377,327.82295081967214,808.2622950819672,0.30961441702881604
378,322.8030456852792,822.8842639593909,0.3170335038487192
379,323.79443892750743,822.8887785501489,0.30895953717924696
380,324.65835929387333,823.4942886812046,0.3062619733339389
381,325.0706126687435,825.0996884735202,0.2917334090241105
382,326.0252897787144,825.2771338250791,0.288857066898663
383,326.96767241379314,824.9525862068965,0.28383140490857917
384,327.95092693565977,825.2529989094875,0.274095011629231
385,335.80555555555554,802.4166666666666,0.25803112497820535
386,329.69730941704034,825.609865470852,0.2625777610276809
387,336.96568627450984,803.4019607843137,0.24796567380605217
388,331.5877598152425,825.0762124711316,0.2529781887511116
389,337.44150943396227,806.9773584905661,0.26267917280160114
390,333.291169451074,825.2338902147972,0.24337905046358607
391,334.28306551297896,825.1100123609394,0.24184834342240655
392,334.93437945791726,825.9386590584879,0.2319307058399667
393,336.0367647058823,825.2132352941177,0.23023280721359476
394,336.8842652795839,825.1742522756826,0.22440905076265588
395,337.7136294027565,825.3598774885145,0.22574746367286502
396,338.5582450832073,825.4704992435703,0.21787933931034795
397,339.6773700305811,824.282874617737,0.21484284744710402
398,340.59322033898303,823.9583975346687,0.21325974399850858
399,341.4573268921095,823.8550724637681,0.2126263463106786
400,342.0912,825.048,0.20857130734677107
401,343.12436974789915,823.381512605042,0.20792959848057166
402,344.1585976627713,822.8747913188648,0.20352827722839203
403,345.0579964850615,822.2724077328646,0.20572161285947593
404,345.59469026548675,822.9646017699115,0.20380060955673027
405,346.7535211267606,821.8292253521126,0.19648045500204073
406,347.5206463195691,821.818671454219,0.19944911846775326
407,348.4169741697417,820.9575645756457,0.19469781877292439
408,349.2216014897579,821.0074487895718,0.1954259593610504
409,350.04672897196264,821.0056074766355,0.19545079508089963
410,350.91954022988506,819.8448275862069,0.1855787005965865
411,351.532196969697,820.7973484848485,0.18569734645464692
412,352.50099009900987,820.3564356435644,0.19159599643288486
413,353.42976939203356,818.9706498951782,0.18744227941730643
