FrameNo,Row,Column,Angle
73,28.627450980392158,768.2352941176471,-0.15256937278017516
74,29.057603686635943,766.9516129032259,-0.17077201937294695
75,29.693156732891833,767.4415011037528,-0.19257199360710345
76,30.48936170212766,767.3617021276596,-0.19819873373372904
77,31.08102766798419,767.3142292490119,-0.21020645749989653
78,31.801217038539555,767.5294117647059,-0.22467877539868775
79,32.79083665338646,768.3067729083665,-0.24071057161646492
80,33.06060606060606,767.0787878787879,-0.262069655014702
81,34.08566108007449,767.8975791433892,-0.2800002987891491
82,34.97701149425287,768.4329501915709,-0.28059715271844404
83,35.52102376599635,768.1499085923217,-0.29421149091654525
84,36.19778188539741,768.438077634011,-0.31495364513320956
85,36.86782608695652,768.2591304347826,-0.3314609920215768
86,37.57904085257549,768.7353463587922,-0.3498803834924361
87,38.48316498316498,769.3265993265993,-0.3523595358957874
88,38.99659863945578,769.6394557823129,-0.39061400609110547
89,39.874161073825505,769.6459731543624,-0.40664749056140304
90,40.36531986531987,769.5016835016835,-0.4310273270075282
91,41.13964686998395,770.4333868378812,-0.44765586055484285
92,42.10666666666667,770.69,-0.47224074803636723
93,42.577371048252914,771.1763727121464,-0.4838996606203235
94,43.2983606557377,771.1016393442623,-0.5145991265174825
95,44.207770270270274,771.9087837837837,-0.533394717337542
96,44.68115942028985,771.9291465378421,-0.5711873341906909
97,45.60032362459547,772.6213592233009,-0.598955175377762
98,46.60064412238325,773.1513687600644,-0.6109666697029258
99,47.14920634920635,773.4095238095238,-0.6671806137792086
100,48.095238095238095,774.1571428571428,-0.6829104795700629
101,48.626168224299064,774.6588785046729,-0.733894948342971
102,49.4248788368336,775.0613893376413,-0.7537243024815805
103,50.32833583208396,775.776611694153,-0.827404600333216
104,50.97408536585366,776.3490853658536,-0.835748520860019
105,51.847457627118644,777.1016949152543,-0.8941506181786164
106,52.58689024390244,777.6692073170732,-0.965067721716572
107,53.37941628264209,778.4869431643625,-1.01959589453992
108,54.23940677966102,779.2266949152543,-1.0871787628938094
109,54.975232198142415,779.5897832817337,-1.1646967381413447
110,55.467766116941526,780.1544227886056,-1.2259795632642234
111,56.21341463414634,780.9283536585366,-1.343287114711907
112,57.01374045801527,781.6076335877863,-1.4445689588593196
113,58.634050880626226,782.4716242661448,-1.5293652136102542
114,59.130434782608695,783.3628185907046,1.4936858315751984
115,59.69402985074627,783.9582089552239,1.374108116268064
116,60.68529411764706,784.65,1.2868858913260615
117,61.56851311953353,785.5626822157434,1.1639581114553919
118,62.454005934718104,786.2388724035609,1.1044995282042485
119,63.27753934191703,787.0672389127325,1.002209031640486
120,64.07768361581921,787.9223163841808,0.9681334808054124
121,65.00569800569801,788.8062678062678,0.8829207161471567
122,66.15308988764045,789.5379213483146,0.8230214794290005
123,67.41463414634147,789.6775067750677,0.7629769590443256
124,68.09215955983494,790.6918844566712,0.739019197071823
125,69.2240663900415,791.5255878284923,0.6868508105254064
126,69.79217273954116,792.2955465587045,0.6441856609885745
127,71.02904564315352,792.7192254495159,0.6207827264850138
128,71.8829071332436,793.600269179004,0.5791205221010901
129,72.80939597315437,794.4671140939597,0.5675027799921869
130,74.01290322580645,794.8567741935484,0.5196097790294981
131,75.0420054200542,795.4620596205962,0.5093480361478232
132,75.87886944818304,796.2934051144011,0.4791711521074844
133,77.0792349726776,796.2786885245902,0.45824626918394723
134,78.22314049586777,796.7052341597796,0.43974123134110904
135,79.15,797.3148648648648,0.41445957706825237
136,80.26510989010988,797.9629120879121,0.388862928809898
137,81.21775312066575,798.3231622746185,0.37100905008980956
138,82.2469304229195,798.5934515688949,0.35556459065611923
139,83.37569060773481,798.8991712707182,0.3348191786640651
140,84.34458509142054,799.604781997187,0.32307380874997127
141,85.29068150208623,799.9388038942976,0.3055679082209408
142,86.48221906116643,800.0184921763869,0.3015692518090817
143,87.51057827926657,800.361071932299,0.29348232651702466
144,88.4574780058651,800.5571847507331,0.2672678817179232
145,89.73997028231798,800.4739970282318,0.25758216566680586
146,90.82105263157895,800.8766917293233,0.24171337742262614
147,91.89538461538461,800.6846153846154,0.23822013388316127
148,92.7900641025641,800.9134615384615,0.22592411030731532
149,93.87321711568939,800.8557844690966,0.20043369974231143
150,95.19547657512116,800.5686591276252,0.20184897819173855
151,95.81260364842454,801.1011608623548,0.19139801913965335
152,96.97598627787308,801.4682675814752,0.18158212578401992
153,97.97264957264957,800.8341880341881,0.1670044418921508
154,99.14745762711864,800.8135593220339,0.16280396942204245
155,100.12432432432432,799.8900900900901,0.14174621712848023
156,101.18355640535373,800.3518164435947,0.13289278668366947
157,102.22753346080306,800.6673040152964,0.12203092173822826
158,103.07014028056112,800.2264529058116,0.12486378988361506
159,104.23449612403101,799.6259689922481,0.10148255108422566
160,105.10330578512396,798.9111570247934,0.10262063114026287
161,106.22832980972515,799.6448202959831,0.08835960188589737
162,107.14746543778801,798.3271889400921,0.07109149848053133
163,107.87619047619047,798.2714285714286,0.07838772676179451
164,109.4289156626506,798.3301204819277,0.044577709559907724
165,109.9627659574468,797.9654255319149,0.05123213714880238
166,111.01960784313725,797.7450980392157,0.03354731379365661
167,112.00558659217877,797.3994413407821,0.051321878379795315
168,112.84615384615384,796.4586894586895,0.013315018492114472
169,113.7593123209169,796.2234957020057,0.017425641991243888
170,114.37606837606837,796.1225071225072,0.008287925547303865
171,115.57785467128028,795.2906574394464,0.0022334051352855626
172,116.50180505415162,794.7436823104694,0.0060663235890410176
173,117.55555555555556,794.6594982078853,-0.016915156628235423
174,118.48221343873517,794.193675889328,-0.04014140190829832
175,119.23574144486692,793.7338403041825,-0.008607962520720323
176,120.15899581589959,793.3933054393306,-0.034696113239423426
177,121.008658008658,793.0909090909091,-0.009469350154862435
178,121.88262910798122,792.2112676056338,-0.003106057412372228
179,122.67298578199052,792.3649289099526,0.053879077920626434
180,123.54679802955665,791.2118226600985,0.04633240937398677
181,124.8080808080808,790.3585858585859,0.1528580425061186
182,125.60732984293193,790.130890052356,0.15625915763831302
183,126.16504854368932,788.6456310679612,0.16946753112099278
184,126.71153846153847,788.0576923076923,0.19402161282204078
185,128.1951219512195,787.0195121951219,0.17838652447262432
186,128.89805825242718,785.7281553398059,0.19619912543043788
187,129.50248756218906,785.0199004975125,0.17209404255490532
188,130.28571428571428,784.5054945054945,0.14492213501383763
189,131.0051282051282,783.4871794871794,0.13036053625816743
190,131.765,783.435,0.10041192559630861
191,132.24124513618676,782.9961089494163,0.076774310694165
192,133.24793388429754,781.1487603305785,0.09495968821604611
193,133.80444444444444,781.6666666666666,0.05935074506703812
194,134.3275261324042,780.5540069686411,0.06122390210468117
195,134.9484126984127,780.1984126984127,0.02863661190552965
196,135.64359861591697,779.0207612456747,0.024079625739972903
197,136.2235294117647,778.6794117647058,0.01978270582782332
198,137.15693430656933,778.5036496350365,0.007613518712117405
199,137.46067415730337,777.7668539325842,-0.006799940396987091
200,138.26086956521738,777.2550724637681,-0.01997783841939085
201,139.02675585284283,776.6020066889632,-0.026921139240004992
202,139.52941176470588,774.6941176470589,-0.04893039811163034
203,140.14102564102564,774.9974358974359,-0.06128193393546168
204,140.74468085106383,775.6170212765958,-0.0784332362596742
205,141.34844868735084,774.6945107398568,-0.08012194136975198
206,142.02669902912623,774.7912621359224,-0.08827507324218335
207,142.51487414187642,773.3340961098398,-0.09836761864531389
208,143.50688073394497,773.6857798165138,-0.1049290792173996
209,143.83614457831325,774.1686746987951,-0.11802653841156585
210,144.30921052631578,773.686403508772,-0.12775910282877914
211,144.8768115942029,773.2028985507246,-0.13585430563316792
212,145.6386554621849,773.6113445378152,-0.15345220605051166
213,145.919587628866,773.2886597938144,-0.1559447645041396
214,146.5557768924303,773.199203187251,-0.1732040347817562
215,147.28352490421457,773.8390804597701,-0.18406983907577218
216,147.87673956262427,773.9582504970178,-0.1885468011435596
217,148.5058365758755,773.5447470817121,-0.20158162589714065
218,149.12075471698114,773.4924528301887,-0.22011469652645152
219,149.59626168224298,773.396261682243,-0.23268583931365341
220,150.42884250474384,774.0721062618596,-0.2306396689238742
221,150.60353982300884,773.5469026548673,-0.25442701298269843
222,151.35069444444446,773.7690972222222,-0.273035752939762
223,151.929173693086,774.406408094435,-0.2781246675518793
224,152.7530224525043,774.9758203799654,-0.2902802597265406
225,153.08247422680412,774.3711340206186,-0.3122882306556932
226,153.94885361552028,775.1710758377425,-0.32031384873793556
227,154.62292358803987,775.5647840531561,-0.3398660941144122
228,155.02861952861952,775.5454545454545,-0.3542488870734957
229,155.69651741293532,775.4759535655058,-0.3825523916276215
230,156.3791390728477,776.2831125827814,-0.3904809339765992
231,156.93086003372682,776.6037099494098,-0.40136448539841807
232,157.6281407035176,776.8375209380234,-0.4289469144428696
233,158.18887015177066,777.5682967959527,-0.4302814453957804
234,158.77574750830564,777.8704318936877,-0.45839809570084405
235,159.69407894736844,778.6842105263158,-0.5020238089604085
236,160.23786407766988,778.9886731391585,-0.5099008220449845
237,160.59711075441413,778.5971107544142,-0.532870735313044
238,161.34125636672326,779.5619694397284,-0.5681466878184127
239,162.26910299003322,780.5249169435216,-0.6311440624594532
240,162.24801271860093,780.2193958664546,-0.6448683840741544
241,163.40453074433657,781.2297734627832,-0.6698729822859625
242,163.53119730185497,781.4013490725126,-0.7122736375740352
243,164.81772575250835,782.7006688963211,-0.7302104137980611
244,165.4310344827586,783.1103448275862,-0.8023626466788873
245,166.07589285714286,783.7745535714286,-0.852087156674438
246,166.5109983079526,784.274111675127,-0.9344072649541036
247,167.27380952380952,784.9098639455782,-1.010449493651185
248,168.5781990521327,785.8341232227488,-1.082632610505981
249,168.97921478060044,786.4688221709007,-1.2484033378776307
250,169.67441860465118,787.2,-1.3511006920198776
251,170.63738738738738,787.9256756756756,-1.4997865402514425
252,170.68275862068964,788.398275862069,1.4413108317651206
253,172.18266978922716,789.3864168618267,1.377963357843643
254,172.74654377880182,790.2188940092166,1.1935281088459142
255,172.99360000000001,790.3696,1.1445761594791135
256,173.736301369863,791.1215753424658,1.006215031252407
257,174.45058626465664,792.070351758794,0.9027440236844247
258,175.1522842639594,792.9103214890017,0.8812762326321617
259,175.72139303482587,793.7313432835821,0.8000719424709087
260,176.9047619047619,794.3044217687075,0.7770956233148314
261,177.53061224489795,795.0714285714286,0.7198547837245685
262,178.44170771756978,795.4663382594417,0.6876943704802031
263,179.0343137254902,796.7532679738562,0.6404542432954293
264,179.63784665579118,797.3686786296901,0.6208057677233566
265,180.4235668789809,798.3375796178344,0.593119389870605
266,181.49427168576105,798.6415711947627,0.5513092424587234
267,182.17445482866043,799.0965732087227,0.5490242291239391
268,183.25791139240505,799.7768987341772,0.5085520922396282
269,183.8176100628931,800.2877358490566,0.4820085409812264
270,184.64536741214056,800.9009584664536,0.4664034664707452
271,185.5640625,801.159375,0.4484839079535639
272,186.7834890965732,801.6884735202492,0.42813956186558216
273,187.9503205128205,801.6073717948718,0.4242852684193107
274,188.21626016260163,802.5593495934959,0.4083318266495065
275,189.12145110410094,803.0,0.37427480820304165
276,189.92246835443038,803.2215189873418,0.3667698246349389
277,190.5241935483871,804.2612903225806,0.35595243063725607
278,191.57460317460317,803.8460317460317,0.3504792509184969
279,192.621236133122,804.2202852614897,0.3329254812488007
280,193.4382911392405,804.618670886076,0.3225533485156371
281,194.13816925734022,805.2763385146804,0.30713052137339697
282,194.8948247078464,805.7929883138564,0.29243742703416636
283,195.8122866894198,805.976109215017,0.28136932215414634
284,196.84375,805.4555921052631,0.27258341351171317
285,197.90202702702703,805.6283783783783,0.2651052453723828
286,198.6388415672913,806.1260647359455,0.26344069797590935
287,199.29166666666669,806.7361111111111,0.24114163477140588
288,200.4300884955752,806.4159292035398,0.22935474391749175
289,201.02139037433153,805.9839572192514,0.22992120972424296
290,202.2735674676525,805.728280961183,0.21856830472800204
291,203.05340699815838,806.6537753222836,0.21279512267568584
292,203.76923076923077,806.4427767354597,0.20508808473651235
293,204.94797687861274,805.7514450867052,0.20201985817206564
294,205.86990291262134,805.8135922330097,0.18954815699672967
295,206.61875,805.34375,0.17863832011591255
296,207.29783037475346,805.1479289940828,0.17684439643461694
297,208.25941422594144,805.652719665272,0.16979037997431815
298,209.2168674698795,804.1465863453815,0.1660108445235022
299,209.98873873873873,805.0945945945946,0.16724591510219508
300,210.67937219730942,804.9529147982063,0.15550504726893968
301,211.40961098398168,805.0480549199085,0.15208926305815254
302,212.3276283618582,804.1931540342298,0.14243711936088194
303,213.15439429928742,803.5819477434679,0.1286882038513022
304,214.20103092783506,803.2963917525773,0.1332542096379758
305,214.89769820971867,803.0358056265984,0.1273760521731645
306,216.1525885558583,802.5531335149864,0.13904724644770436
307,216.51666666666665,802.3916666666667,0.12916269482697262
308,217.59604519774012,802.1242937853108,0.0958065697433896
309,218.31034482758622,802.269592476489,0.1099395195755221
310,219.35668789808918,800.8375796178344,0.11423889511405988
311,220.0573476702509,800.8064516129032,0.11702102354337754
312,220.98773006134968,799.4601226993865,0.07072322373078076
313,221.75390625,800.75,0.1010254174702012
314,222.25,799.5573770491803,0.06384560155944533
315,223.25380710659897,799.2994923857868,0.09372779639739391
316,224.00531914893617,799.1117021276596,0.08520642216588552
317,224.86899563318778,798.589519650655,0.08750957208554565
318,225.50898203592814,798.7005988023952,0.08756143763737703
319,226.61349693251532,797.5766871165645,0.09253488575356689
320,227.0368098159509,797.4171779141104,0.09815222377050035
321,228.10071942446044,796.8057553956835,0.08900177195888131
322,228.89147286821705,796.1395348837209,0.1068121279726887
323,229.55833333333334,796.3833333333333,0.14500144687331307
324,230.41176470588235,795.1260504201681,0.14693505707795354
325,231.03875968992247,794.046511627907,0.1532983847770246
326,231.86776859504133,792.4876033057851,0.15607805281395293
327,232.96031746031747,791.5873015873016,0.13142954296489587
328,233.71212121212122,790.3863636363636,0.08149305546582641
329,234.18055555555554,790.1597222222222,0.08106586695915922
330,235.16438356164383,789.7671232876712,0.08662368298160589
331,235.68553459119497,789.062893081761,0.07635201911630603
332,236.28176795580112,788.4640883977901,0.08560435419915559
333,237.2057142857143,788.3428571428572,0.055631512404234536
334,237.63253012048193,786.7048192771084,0.039412183970279756
335,238.4278350515464,786.6134020618557,0.04734863697451528
336,239.09595959595958,785.4545454545455,0.007239558123004004
337,239.85643564356434,785.7524752475248,6.258354250685912e-06
338,240.28365384615384,784.3173076923077,0.001689865402999506
339,240.98859315589354,785.1368821292775,-0.008406664337935032
340,241.39406779661016,783.2033898305085,-0.01979564506563684
341,242.2426778242678,782.7698744769874,-0.020193991425173002
342,242.92121212121214,783.6848484848485,-0.030195878003244712
343,243.47636363636363,781.709090909091,-0.03974450584514624
344,244.1198501872659,781.5992509363296,-0.0376564977050819
345,244.88141025641028,780.6025641025641,-0.037584275090865905
346,245.21575342465752,780.8938356164383,-0.06582993111280676
347,245.81694915254238,779.2779661016949,-0.06359540673161121
348,246.54071661237785,779.2964169381107,-0.06326715016249258
349,246.872,779.328,-0.07350920269322121
350,247.505076142132,778.9238578680203,-0.08747225866638235
351,248.15072463768115,778.127536231884,-0.0952963710585884
352,248.73099415204678,778.719298245614,-0.09589523573382468
353,249.42201834862385,778.098623853211,-0.1145293921289044
354,250.05364806866953,778.2381974248927,-0.12156437465602019
355,250.23516483516482,777.6175824175824,-0.12351439200090099
356,251.1659292035398,778.0641592920354,-0.12362912059008278
357,251.5439672801636,777.2944785276073,-0.14289021177218794
358,252.33112582781456,778.1545253863135,-0.15442061194188245
359,252.9195171026157,778.3843058350101,-0.1543727381403144
360,253.1514563106796,776.8699029126213,-0.15960330274733237
361,253.92263056092844,777.9206963249517,-0.1654729424757201
362,254.20359281437126,776.9640718562874,-0.19036405454611366
363,255.12835249042146,777.9501915708812,-0.20257773252392763
364,255.57495256166982,778.3301707779887,-0.20145575473371094
365,256.07992565055764,777.4256505576208,-0.21811015477350526
366,256.8502994011976,778.5169660678642,-0.22152527960251975
367,257.32,778.6545454545454,-0.23805275446729438
368,258.0180831826401,778.7974683544304,-0.2402510256672938
369,258.5768566493955,779.0483592400691,-0.24640886777689458
370,259.1300366300366,779.1318681318681,-0.2627478165027666
371,259.8894557823129,780.0833333333334,-0.2679268222288369
372,260.2260273972603,779.4743150684932,-0.2805888324747175
373,260.53589315525875,779.6811352253757,-0.3053100418606465
374,261.55535714285713,780.9303571428571,-0.3215340660585231
375,262.1780366056572,781.1381031613977,-0.32603586672758
376,262.56382978723406,780.8049645390071,-0.3564547999761092
377,263.12521150592215,781.3045685279187,-0.36120313399707943
378,263.3587521663778,780.5424610051994,-0.3702981954408115
379,264.14616755793224,781.463458110517,-0.4182722075772288
380,264.5461121157324,781.8553345388789,-0.42628487518174546
381,265.62254025044723,782.6153846153846,-0.4497107403054431
382,266.3333333333333,783.746192893401,-0.45883229178654356
383,266.61870503597123,783.4478417266187,-0.49401706558101427
384,267.65565217391304,784.4973913043478,-0.5059592620050243
385,267.7720588235294,784.5569852941177,-0.5261360222185928
386,268.31949458483757,785.0180505415162,-0.5725514688089586
387,269.21946564885496,785.3148854961833,-0.582395817753978
388,269.79189686924497,786.0349907918969,-0.6264374001250674
389,270.4776119402985,786.7145522388059,-0.6726405875456751
390,270.8623326959847,786.8087954110898,-0.7204290473031997
391,272.10185185185185,787.8870370370371,-0.7594248379427664
392,272.188785046729,788.4205607476636,-0.7988114388383079
393,272.6653992395437,788.4980988593156,-0.8509226690608199
394,273.467362924282,789.6762402088773,-1.001970429940936
395,274.2766497461929,790.1370558375635,-1.0682530559612415
396,274.98330241187386,790.6512059369202,-1.192677572245242
397,275.4225,791.5025,-1.369582176234581
398,276.04761904761904,791.859649122807,1.5460117403945692
399,277.01269035532994,792.725888324873,1.4176135426330327
400,277.7039800995025,793.5995024875622,1.208722618578446
