FrameNo,Row,Column,Angle
98,79.74271844660194,686.5145631067961,-0.531840082436109
99,80.19121447028424,686.1369509043927,-0.5769321159865931
100,81.60705289672543,686.5743073047859,-0.5938965312101936
101,82.27297297297298,686.2297297297297,-0.6142830104354635
102,83.11421319796955,686.3908629441624,-0.639846362928332
103,84.27540106951872,686.6336898395722,-0.6634354939565786
104,84.89698492462311,686.3542713567839,-0.7194194714121361
105,86.45145631067962,687.1529126213592,-0.7817918847048431
106,86.89866666666667,686.648,-0.7705625523929249
107,87.7356608478803,687.214463840399,-0.8247305295807538
108,88.81508515815085,687.1265206812652,-0.8615333201914478
109,89.74019607843137,687.3014705882352,-0.9011341315773451
110,90.43552311435523,687.6350364963504,-1.0177263367324987
111,91.57487922705315,687.9782608695652,-1.06734901004412
112,92.4319248826291,688.4577464788732,-1.1590122492649746
113,93.50574712643679,688.8022988505747,-1.2894766281234329
114,94.02386117136659,688.9739696312364,-1.3954661138675342
115,95.54838709677419,689.4746543778801,-1.4487945286174886
116,96.55233853006682,689.8641425389756,1.462241279710522
117,97.25,690.4209401709402,1.298290393484729
118,98.42521367521367,691.0641025641025,1.1207624682900263
119,99.3502024291498,691.3906882591093,1.0755356282063302
120,100.8024193548387,691.945564516129,0.8929237544391837
121,101.67137096774194,692.1895161290322,0.7873531831085432
122,102.47731755424063,692.7455621301775,0.7244148847225615
123,104.0414201183432,693.2583826429981,0.6787812183781652
124,104.66424682395645,693.7622504537205,0.63761549233301
125,106.02429906542056,694.2130841121495,0.6039913688212383
126,107.03853211009174,694.7559633027523,0.5330118527168701
127,108.15896487985212,695.28280961183,0.5222697479092567
128,109.22638146167557,695.566844919786,0.480278963831264
129,110.22122302158273,696.0881294964029,0.44981899461116887
130,114.97321428571429,694.0714285714286,0.3831945035004501
131,112.36048526863085,697.0311958405546,0.41260746858990444
132,113.51505016722408,697.2742474916388,0.3836983170196439
133,114.84237288135593,697.7101694915254,0.37002242839677746
134,116.07263513513513,697.8699324324324,0.3688081060816995
135,117.085,698.7933333333333,0.3367376066485163
136,118.31122448979592,698.5391156462586,0.3303382676452206
137,119.4822934232715,699.0809443507588,0.3142867459588624
138,120.43471074380166,699.406611570248,0.29847860645652263
139,121.76747967479675,699.5691056910568,0.2906406309522463
140,123.06972789115646,699.8469387755102,0.27581882051315254
141,124.12745098039215,700.1846405228758,0.27521340374056313
142,125.15867768595041,699.9537190082644,0.2455180837816878
143,126.41639871382637,700.8408360128617,0.23131909464490852
144,127.62393162393163,700.2940170940171,0.23337256946085264
145,128.67301038062283,700.8356401384083,0.22300256426077292
146,129.6969696969697,701.1782531194295,0.20918034155435833
147,131.0804794520548,700.6780821917808,0.20846158146365923
148,132.27700348432057,700.6689895470383,0.1950932556348549
149,133.25951557093424,700.9896193771626,0.18589545725776319
150,134.34760273972603,700.736301369863,0.1860319988426868
151,136.22920517560073,700.1608133086876,0.1807580960454335
152,137.05925925925925,700.6351851851852,0.1557807060085596
153,138.46327683615817,699.8568738229756,0.1591556459489596
154,139.53065134099617,700.4176245210728,0.14733143609036012
155,140.74074074074076,699.6213991769547,0.14407234536674784
156,142.04032258064518,698.7782258064516,0.15960100363116597
157,142.86567164179104,698.7121535181236,0.13069940562122564
158,144.19957983193277,699.5336134453781,0.14101681965723473
159,145.2439024390244,698.3237250554324,0.13450744039939377
160,146.48539325842697,698.2831460674157,0.10793432085462415
161,147.92000000000002,697.0752941176471,0.14554058444705265
162,148.98842592592592,696.4814814814815,0.13805288814528607
163,150.09223300970874,696.8252427184466,0.10694384121544573
164,151.14933333333335,696.448,0.11968404992366836
165,152.15445026178008,695.6623036649214,0.0986895931426166
166,153.1056910569106,695.2357723577236,0.10132511624827596
167,154.5090909090909,694.6515151515151,0.09426268955055397
168,155.46129032258065,693.7774193548387,0.07577739305819484
169,156.5807453416149,693.3074534161491,0.09697753017492879
170,157.80338983050848,692.6813559322034,0.11276131745987378
171,158.87445887445887,692.4112554112554,0.0880337979279285
172,160.01214574898785,691.8542510121457,0.09834372420258482
173,160.9676113360324,690.6842105263158,0.09921631077990015
174,162.23469387755102,689.8469387755102,0.07764129533990649
175,163.08653846153845,689.8894230769231,0.09858566474256093
176,164.35220125786162,688.1823899371069,0.09317140787039543
177,165.2972972972973,687.4797297297297,0.09777623046297404
178,166.5,687.2640449438202,0.08000032379849921
179,167.28682170542635,686.2868217054264,0.09714262434570173
180,168.5,685.1634615384615,0.09998317118519466
181,169.85714285714286,681.6233766233767,-0.012889600220518329
182,170.85714285714286,681.8571428571429,0.03201240537427454
183,171.76,683.54,0.0954502894398823
184,172.59574468085106,683.6063829787234,0.0632591857595242
185,173.64423076923077,683.3942307692307,0.13130435031297166
186,174.45833333333331,683.3854166666666,0.10380132925949197
187,175.39784946236557,683.483870967742,0.13087223301137707
188,176.4516129032258,682.2258064516129,0.07345235085843106
189,177.16153846153844,680.5307692307692,0.03412676827153927
190,178.15384615384616,679.5307692307692,-0.02785903261849014
191,179.10606060606062,678.4469696969697,-0.027051215079476255
192,179.9248120300752,678.1127819548872,-0.0670196070638311
193,180.94444444444446,677.3518518518518,-0.0731736860879751
194,181.8074534161491,676.7080745341615,-0.10649356542535188
195,182.5287356321839,675.3678160919541,-0.12982002897981842
196,183.59411764705882,674.9823529411765,-0.12035710761471799
197,184.35,673.8666666666667,-0.14051369493446933
198,185.09424083769633,673.6649214659686,-0.14055512138991447
199,186.18367346938777,673.219387755102,-0.1397642866158445
200,187.05607476635515,671.9719626168225,-0.15623865563817058
201,187.8421052631579,671.334928229665,-0.15779040137074285
202,189.0,671.706976744186,-0.17542959840475306
203,189.64186046511628,670.4186046511628,-0.17612529996843646
204,190.49781659388645,670.061135371179,-0.18217241718461938
205,191.53164556962025,669.8143459915611,-0.1871473731077415
206,192.331914893617,669.263829787234,-0.18062632679927063
207,193.25877192982455,669.1447368421052,-0.19787932956413118
208,193.852140077821,667.2412451361868,-0.20146646352971456
209,194.715953307393,667.5875486381323,-0.19961159913900767
210,195.9246031746032,668.3174603174604,-0.22381114347735778
211,196.42435424354244,666.5129151291513,-0.2081505358141751
212,197.31698113207545,666.011320754717,-0.22507213095060108
213,198.41015625,666.53515625,-0.22564832857003428
214,199.09578544061304,666.1877394636015,-0.23964994322690153
215,200.1764705882353,666.4963235294117,-0.23331131685507786
216,201.0631970260223,665.7063197026023,-0.2509850178687027
217,201.79078014184398,664.9893617021277,-0.2485624877580712
218,203.12962962962962,666.9888888888889,-0.2611804022588324
219,203.62111801242236,664.6335403726708,-0.2686537657922654
220,204.42238267148014,665.0144404332129,-0.27592311267451386
221,205.41754385964913,664.9859649122807,-0.2785873231076488
222,206.0896551724138,664.6862068965518,-0.28266269882809786
223,207.2892857142857,665.3035714285714,-0.3035261562090022
224,207.8780487804878,664.4146341463414,-0.3035316723002628
225,208.78350515463916,664.7491408934708,-0.3180059761022159
226,209.46229508196723,664.1016393442623,-0.32357471140512206
227,210.57857142857142,664.7321428571429,-0.3407821515783145
228,211.36754966887418,664.5629139072847,-0.35455954824908265
229,212.19808306709265,664.1789137380192,-0.3610520295995941
230,213.01582278481013,664.4841772151899,-0.3683284129509631
231,213.88524590163934,664.1737704918032,-0.389734483697768
232,214.56103896103895,664.3168831168831,-0.3929753348069142
233,215.44708994708995,664.8068783068783,-0.4167778231165721
234,216.1908831908832,664.0113960113961,-0.4431695828970917
235,217.13019390581718,664.4930747922438,-0.4635916002104826
236,217.8072625698324,664.4413407821229,-0.4776913297254387
237,218.4836956521739,664.1711956521739,-0.4960073130825557
238,219.50696378830082,665.0362116991644,-0.5172498085690104
239,220.44475920679886,665.0028328611897,-0.5205473866013681
240,221.32112676056337,664.7492957746479,-0.5748475859704367
241,222.01600000000002,664.488,-0.5798363861413882
242,223.2390670553936,665.4169096209912,-0.5987005424165591
243,223.85,664.828947368421,-0.6246810207668999
244,224.65193370165747,665.5994475138122,-0.6933097511206097
245,225.49604221635883,665.8601583113457,-0.7309850325436502
246,226.3580901856764,666.2015915119364,-0.7617802121877725
247,227.6236559139785,666.6182795698925,-0.7788732621668458
248,228.09550561797752,666.629213483146,-0.845800086259664
249,228.58426966292134,666.556179775281,-0.8512562801638963
250,229.31914893617022,667.188829787234,-0.9684172089432609
251,230.2567901234568,666.7876543209877,-0.8734011516462584
252,231.10133333333334,668.12,-1.137252505089147
253,232.35051546391753,668.5231958762887,-1.251784746885446
254,233.2233502538071,669.2208121827412,-1.544541293223185
255,234.1936274509804,669.4264705882352,0.809905961095047
256,235.33333333333331,670.1470588235294,0.7298496557519395
257,235.89423076923077,670.8605769230769,0.6752524286800784
258,237.15529411764706,671.2941176470588,0.5940190501235126
259,237.74259681093395,671.997722095672,0.5375784161284953
260,238.97972972972974,672.4144144144144,0.49987146223757045
261,239.39139784946235,673.9569892473119,0.45025522961947545
262,240.41814159292034,674.5022123893805,0.3936068586839514
263,241.5,674.5088105726873,0.3744949687316228
264,242.45031712473573,675.3763213530656,0.35697097868881184
265,243.28747433264886,676.1211498973306,0.3050177033103838
266,244.47021276595746,676.6085106382978,0.3097475041650548
267,245.5824847250509,676.8615071283095,0.2929037244698077
268,247.33333333333331,677.6842105263158,0.3056199526270674
269,247.60320641282567,678.2685370741483,0.24383114288501492
270,248.7095516569201,678.5906432748538,0.2487533918073511
271,249.518,678.76,0.20541800448255804
272,250.8974854932302,678.5647969052225,0.20051474422313728
273,251.88163265306122,679.8428571428572,0.19827674464210715
274,256.87931034482756,662.5689655172414,0.14113705975936106
275,253.74124513618676,680.6108949416342,0.1656636788285959
276,254.64944649446494,680.5848708487085,0.14223164289311335
277,255.47895791583164,682.0200400801604,0.14626909221013396
278,256.80202020202023,680.9838383838384,0.14101830981065958
279,257.646,681.806,0.1325410203894541
280,258.59707724425886,682.6325678496869,0.12571397403498294
281,262.8928571428571,661.8571428571429,0.07629633959774787
282,260.7323651452282,682.4896265560166,0.11588117637494876
283,261.74636174636174,682.3617463617463,0.10624963749661186
284,262.4760869565217,682.7413043478261,0.1074531970420117
285,263.76774193548385,682.5010752688172,0.10362594742803531
286,264.7416481069042,681.9287305122494,0.09183359517763515
287,265.96483516483516,681.778021978022,0.08578513497268325
288,267.20898876404493,681.5573033707865,0.07528961324027696
289,267.81464530892447,681.2471395881007,0.07871721973883208
290,269.0411899313501,680.116704805492,0.0718084250698927
291,269.7664233576642,680.7810218978102,0.05879995163106939
292,270.73399014778323,680.3793103448276,0.05894466995897309
293,271.7105263157895,679.6236842105263,0.05453308206939493
294,272.9974358974359,679.2589743589743,0.041342456846715926
295,273.7202216066482,678.3019390581717,0.056203403166103776
296,274.64525139664806,678.5586592178771,0.06803469105869257
297,275.6726618705036,678.7374100719425,0.05823402587798084
298,276.52329749103944,677.2329749103942,0.03996096314134608
299,277.4803149606299,676.4645669291339,0.05087684320120524
300,278.57201646090533,675.9012345679013,0.044770447115426944
301,279.31739130434784,675.2695652173913,0.04886735368421081
302,280.1830985915493,674.6244131455398,0.04522328282738721
303,281.2173913043478,674.1739130434783,0.04759270714430104
304,282.1185567010309,672.9381443298969,0.04191893077820799
305,283.2994652406417,672.2245989304813,0.04648553759184412
306,283.9942528735632,671.735632183908,0.04864055635064702
307,284.6181818181818,671.0545454545454,0.05657533567493018
308,285.6666666666667,670.3537414965987,0.057872234260702864
309,286.59558823529414,669.6764705882352,0.06657602312916341
310,287.53846153846155,668.5307692307692,0.05553143577688699
311,288.4433962264151,666.0283018867924,0.0010916182391431995
312,289.37254901960785,665.813725490196,-0.016617102332074463
313,289.95145631067965,665.4757281553398,-0.04778452975131256
314,290.91150442477874,667.5752212389381,0.0536370917693532
315,291.8292682926829,667.5284552845528,0.0663446561515318
316,292.464,666.384,0.011002308020892118
317,293.41379310344826,666.8275862068965,0.024619887362908828
318,294.10084033613447,666.5210084033613,0.0011172101338633696
319,294.9491525423729,665.6949152542372,-0.026674803723779283
320,295.6341463414634,664.9024390243902,-0.08100515125271725
321,296.1029411764706,663.5735294117648,-0.11813441257381636
322,296.99270072992704,663.2335766423357,-0.12128285564122006
323,297.56944444444446,661.3680555555555,-0.16210113751801558
324,298.58,661.6800000000001,-0.20085560393953558
325,299.1235294117647,660.3235294117648,-0.22507794631479544
326,299.6553672316384,659.6214689265537,-0.18569537523120924
327,300.6086956521739,659.416149068323,-0.21134648395832725
328,301.4869109947644,658.7853403141361,-0.23213473823646952
329,302.18817204301075,658.0322580645161,-0.23541458520568845
330,302.77,657.09,-0.24349531219691467
331,303.5074626865672,656.5820895522388,-0.23447655383652094
332,304.0817307692308,655.5721153846154,-0.24108006264574852
333,304.8755980861244,655.3684210526316,-0.23679282504070687
334,305.44635193133047,654.5064377682404,-0.23929952177608724
335,306.4099099099099,654.5315315315315,-0.25016048677315456
336,307.2510460251046,655.0041841004185,-0.2384144792798238
337,307.7429718875502,652.855421686747,-0.24585793094258543
338,308.5271966527197,653.0334728033473,-0.24139227667085922
339,309.26190476190476,652.4166666666666,-0.25700496065013767
340,309.69662921348316,651.3520599250936,-0.25877089068801107
341,310.768115942029,651.786231884058,-0.25692334550002033
342,311.4145454545455,651.2363636363636,-0.26224205886872853
343,312.29296875,651.72265625,-0.2616375442170578
344,312.80898876404495,650.4569288389513,-0.2699501117492076
345,313.3520599250936,649.5393258426966,-0.26945802221046083
346,314.22758620689655,649.6620689655173,-0.2763374718897207
347,314.9283154121864,649.3584229390681,-0.2854179307609593
348,315.8,649.4836363636364,-0.28087413833198255
349,317.01824817518246,650.7153284671533,-0.2938666496258577
350,317.65517241379314,650.7739463601532,-0.29712252809674256
351,318.2116788321168,650.0474452554745,-0.30087736937538945
352,319.19850187265916,650.5243445692884,-0.3019197920203239
353,319.65292096219935,649.6941580756014,-0.3130513401276781
354,320.37014925373137,649.5701492537313,-0.30982385659928807
355,321.42910447761193,650.276119402985,-0.3281772387629959
356,322.57633587786256,651.3473282442748,-0.340646705538784
357,323.1735849056604,650.6679245283019,-0.3358445479744835
358,324.0760456273764,651.2281368821293,-0.34515999294257427
359,324.6304347826087,650.9166666666666,-0.35509172808512157
360,324.8561403508772,649.3894736842105,-0.36582232007955046
361,326.1678832116788,650.8430656934306,-0.37793132735499707
362,326.64310954063603,650.1201413427561,-0.38829338030398847
363,327.6826568265683,650.7084870848709,-0.4028478914160499
364,328.5992907801418,651.1737588652483,-0.41578661604434614
365,328.5393586005831,650.7142857142857,-0.43857619585908036
366,330.0785714285714,651.3535714285714,-0.4514012412258594
367,330.69774919614144,651.1832797427653,-0.44799005732382663
368,331.5238095238095,651.4542124542124,-0.4885566325656179
369,332.5064935064935,651.775974025974,-0.4705369413738799
370,332.82747603833866,651.44089456869,-0.517061448642375
371,333.81,651.7533333333333,-0.5559555887649087
372,334.7943037974684,651.7120253164557,-0.5148557089067727
373,334.6290322580645,651.7806451612903,-0.6308186563187379
374,335.96989966555185,652.3612040133779,-0.605093657400535
375,336.7361111111111,652.7013888888889,-0.6220704197381801
376,337.6,653.090625,-0.6380004635823207
377,338.3051948051948,653.275974025974,-0.7044550539906179
378,338.9313725490196,653.8235294117648,-0.717078622521779
379,339.71947194719473,654.1122112211222,-0.7284482356272105
380,340.6136363636364,654.4935064935065,-0.7377423239253528
381,341.12418300653593,654.7418300653595,-0.6829574177626615
382,341.86915887850466,655.3395638629283,-0.6287522199732515
383,342.28851540616245,656.5490196078431,0.468202301086878
384,343.84033613445376,656.4033613445379,-0.014617367766311454
385,344.9852941176471,657.5,0.2863439114972965
386,345.5587392550143,658.7392550143267,0.22292424229494326
387,346.13714285714286,659.3714285714286,0.274694633711847
388,347.01690140845074,659.7830985915493,0.2544551724568556
389,347.9269662921348,660.5393258426966,0.22150293904213364
390,349.0152671755725,660.8956743002544,0.24876796544385776
391,349.86133333333333,661.8533333333334,0.2525263492328167
392,350.5911458333333,662.8359375,0.2119853482835814
393,351.74554707379133,663.0407124681934,0.18771061736174918
394,352.5103092783505,664.0412371134021,0.180572019995696
395,353.66829268292685,664.1926829268293,0.16837728876073121
396,351.8333333333333,671.6666666666666,-0.10200326979055455
397,355.4756097560976,665.6073170731707,0.14711217952596156
398,356.0775,666.0525,0.138993660278881
399,356.94103194103195,668.3144963144963,0.11682049712165656
400,357.7229219143577,667.9420654911839,0.1036726628447219
401,358.79661016949154,667.8571428571429,0.09821696278167215
402,359.76942355889724,668.6065162907269,0.07344506039122764
403,360.624703087886,669.0926365795724,0.08814410972036824
404,361.4309927360775,669.2058111380145,0.08521863977696253
405,362.139896373057,670.220207253886,0.07354034894180086
406,362.5503875968992,676.4961240310078,0.03150507682539498
407,364.23035230352303,669.9756097560976,0.06419347054792553
408,365.1517857142857,670.0119047619048,0.060812887970851374
409,365.52054794520546,674.9041095890411,0.032764666572326025
410,366.13829787234044,677.5957446808511,0.024096854403193806
411,367.709375,669.265625,0.04225442353716647
412,368.87733333333335,669.8266666666667,0.05169844950830957
413,370.59375,649.234375,0.04940644838217266
414,370.4304207119741,668.3948220064725,0.036536228185879836
415,371.2302405498282,668.2302405498282,0.03160682072373172
416,372.00338983050847,668.671186440678,0.031119071016105587
417,372.79432624113474,666.6028368794326,0.03167548481918597
418,373.71785714285716,666.5678571428572,0.02977255712873608
419,374.6363636363636,665.9772727272727,0.040781516477526876
420,375.47859922178986,666.9805447470817,0.02663068690236311
421,376.2313725490196,666.0549019607843,0.01599167668070749
422,376.89256198347107,664.3884297520661,0.027243365765391634
423,377.748031496063,664.5275590551181,0.016746430133088425
424,378.618025751073,663.8068669527897,0.03272663434674398
425,379.49344978165936,663.0349344978166,0.027554401805035468
426,380.0759493670886,663.4472573839662,0.016455952866257628
427,380.71367521367523,662.4487179487179,0.019668596632580554
428,381.6227272727273,662.3636363636364,0.03053356005633881
