FrameNo,Row,Column,Angle
73,38.551236749116605,822.2226148409894,1.444651880208448
74,39.57534246575342,821.927397260274,1.4488920109750774
75,41.47930574098798,821.5807743658211,1.4514143182811339
76,43.205570291777185,821.657824933687,1.4589425970200853
77,45.623684210526314,821.4776315789474,1.4614916095920265
78,47.289308176100626,821.2691823899371,1.4719530107779644
79,49.34663341645885,821.1683291770573,1.4712476825814758
80,51.72986369268897,821.0607187112763,1.4754877356191212
81,53.382640586797066,821.0036674816625,1.4843207079953293
82,55.20858895705521,820.7030674846626,1.4869882808978205
83,57.04921968787515,820.6626650660264,1.4940841060433325
84,59.087514585764296,820.38739789965,1.5012946269558671
85,62.04571428571428,820.2148571428571,1.5094653930396107
86,63.1589103291714,820.0749148694665,1.5170462477548021
87,65.98150289017342,819.8624277456647,1.5134403892263113
88,67.38444924406048,819.6695464362851,1.5314739170682123
89,69.70338058887677,819.6761177753544,1.5321703781173706
90,71.80743982494529,819.2560175054705,1.543946386475259
91,73.81127982646422,818.880694143167,1.5467020967274216
92,75.72660357518401,818.69610935857,1.5534723948215852
93,77.61974789915966,818.4569327731092,1.5655854285207558
94,79.88379530916845,818.2249466950959,1.5705729201168512
95,81.96979166666667,817.9333333333334,-1.561470816483722
96,84.35735735735736,817.6446446446446,-1.5550413576353146
97,86.1626746506986,817.3672654690619,-1.548620488510088
98,88.39026812313803,816.9880834160874,-1.5370833735110776
99,90.01673228346456,816.732283464567,-1.5296693100330536
100,92.24633431085044,816.4310850439883,-1.5203557559299932
101,94.07751937984496,816.0959302325582,-1.5068941499622115
102,96.73967339097022,815.8655139289145,-1.500623826978939
103,98.72752548656163,815.6051899907321,-1.4944281365275214
104,100.62406716417911,815.107276119403,-1.4822664806012529
105,103.03521779425394,814.8804448563485,-1.4678307052335995
106,104.88256549232159,814.5067750677507,-1.4673382896850113
107,106.8351548269581,814.1366120218579,-1.445582324527919
108,109.55008944543829,813.7933810375671,-1.4413780339317308
109,111.16900175131349,813.3485113835377,-1.4235651397859634
110,113.1922077922078,812.943722943723,-1.4210899724177197
111,115.83217391304348,812.6826086956522,-1.4129096931977094
112,117.77067348678602,812.2514919011082,-1.4080088627110814
113,120.24229452054794,811.785102739726,-1.3780971753899225
114,122.13383838383838,811.1919191919192,-1.3793100099820397
115,124.49405772495756,810.9524617996605,-1.3610600313363979
116,126.56474519632414,810.5806182121971,-1.3537193400295848
117,128.83755102040817,810.1102040816327,-1.335331342019595
118,130.99834437086093,809.7400662251656,-1.3306629455493875
119,133.1980198019802,809.2277227722773,-1.3213675976789838
120,135.70593013809912,808.8497156783103,-1.306778403924368
121,137.29952076677316,808.2260383386581,-1.3010235709441393
122,139.62273086029992,807.6369376479873,-1.2777143690039099
123,142.64444444444445,807.3039682539683,-1.2722229092476574
124,144.6081730769231,806.9126602564103,-1.2599725859228064
125,146.89573459715638,806.5023696682465,-1.2527834600648553
126,148.83255451713396,806.0280373831775,-1.2416986555276073
127,151.1388673390225,805.6012412723042,-1.226119214279708
128,153.76043276661517,805.1406491499228,-1.206439398972948
129,155.94312067640277,804.7240584166026,-1.2005446186075934
130,158.202743902439,804.1592987804878,-1.1790230736307876
131,160.80324074074076,803.9452160493827,-1.1758020630546335
132,162.7169811320755,803.2679245283019,-1.1591010726477107
133,165.17080511662903,802.8404815650865,-1.150743671169442
134,167.43052391799546,802.2369020501139,-1.1290227434044255
135,169.93548387096774,801.867216804201,-1.1192008714038248
136,172.29861616897307,801.3743627093954,-1.1076593072133953
137,174.78289962825278,800.9167286245353,-1.1019873803606486
138,177.1169977924945,800.5393671817512,-1.0881995280778003
139,179.74464944649446,800.0206642066421,-1.0735539930904638
140,181.7955039883974,799.4467005076142,-1.061322953495832
141,184.13357664233575,798.9759124087591,-1.041358719163544
142,186.61655773420478,798.5453885257807,-1.031100989721018
143,189.0429403202329,798.184133915575,-1.0235285435650077
144,191.10369833212474,797.4757070340827,-1.0041238229507954
145,193.64996368917937,796.9026870007262,-0.9983942110012285
146,195.97879858657245,796.3879858657244,-0.9845846731314689
147,198.47149894440537,795.9809992962703,-0.9680291594528809
148,200.97340043134437,795.489575844716,-0.9587728884591001
149,202.96595744680852,794.9695035460993,-0.943495095696748
150,206.0,794.5342368045649,-0.9356137732913181
151,208.2612809315866,793.9781659388647,-0.9175971688184633
152,210.3961729270021,793.4039688164422,-0.8991965819413628
153,212.82424677187947,792.9634146341464,-0.9022679066544667
154,215.01685393258427,792.3848314606741,-0.881279868042619
155,217.8413361169102,792.2115518441196,-0.866251875544242
156,220.3590106007067,791.7901060070672,-0.8646064170798106
157,222.88172043010752,791.310394265233,-0.8454731979171984
158,225.26183644189382,790.6814921090388,-0.8373747066585957
159,227.39941902687002,790.081336238199,-0.822737189870178
160,230.07920792079207,789.8189533239038,-0.806713048735284
161,232.2865208186309,789.1390261115032,-0.8004129112970317
162,235.055316091954,788.9806034482758,-0.7813562453298734
163,237.192005710207,788.3369022127052,-0.7818124165829233
164,239.75230660042584,787.9957416607523,-0.7573059686044217
165,242.2620938628159,787.6635379061372,-0.7541411456281785
166,244.95617238860484,786.9656683710738,-0.7382832441533499
167,247.3067528735632,786.7363505747127,-0.7223454682982573
168,249.95664739884393,786.2969653179191,-0.7266134803760914
169,252.46011816838995,785.874446085672,-0.7179182864033659
170,254.98424606151536,785.483870967742,-0.7002851591325985
171,257.08296296296294,784.7925925925927,-0.6892456722437557
172,259.69079939668177,784.3604826546003,-0.6742049496229623
173,262.1115942028986,783.7992753623189,-0.6589331184618427
174,265.1666666666667,783.9407407407407,-0.6542027122964954
175,267.4432835820895,783.4708955223881,-0.647441607373203
176,269.92771084337346,783.4036144578313,-0.6364541343828696
177,272.42085235920854,782.662100456621,-0.6317088750322375
178,275.0408635312259,782.7093292212799,-0.6214249742888032
179,277.2018140589569,782.2993197278912,-0.613904469652438
180,279.7741176470588,781.683137254902,-0.6136389403067573
181,282.43715846994536,781.5511319281811,-0.6009668897383219
182,284.9154929577465,781.4209702660407,-0.5907146515293217
183,287.49645948072384,780.9087332808812,-0.5844954031520153
184,289.95372549019606,780.796862745098,-0.5798437110323921
185,292.408610885459,780.4532900081235,-0.5815834839798819
186,294.82104391052195,780.0140845070423,-0.5606425343965945
187,297.3592233009709,780.0072815533981,-0.5528342749533439
188,300.0808580858086,779.8267326732673,-0.5457700693768656
189,302.6177194421657,779.5291222313372,-0.5342899804340004
190,304.79399499582985,779.1342785654713,-0.5259791007804622
191,307.4757858963467,779.2710280373832,-0.5132537763891736
192,310.07751937984494,778.8285960378984,-0.5109536115732713
193,312.2245250431779,778.6295336787565,-0.511744068308635
194,315.1245487364621,778.913357400722,-0.4969365660821649
195,317.18446601941747,778.3415710503089,-0.49078852068256607
196,320.00089126559715,778.4358288770054,-0.47545449533981515
197,322.37753222836096,778.4208103130755,-0.4902127147516277
198,324.65585585585586,778.0990990990991,-0.48158967165046446
199,327.2874762808349,778.1793168880455,-0.47863919039941594
200,329.8090310442145,778.3621825023519,-0.4716666518015829
201,332.46923076923076,778.2548076923077,-0.46770912486955907
202,334.50283018867924,777.3481132075472,-0.45368842597946774
203,337.520202020202,778.2969696969697,-0.4543550348409747
204,339.7742268041237,777.8278350515463,-0.4461196412541573
205,342.5575129533679,778.1896373056995,-0.4409644783840079
206,344.5766045548654,777.8416149068323,-0.43299323805819107
207,347.2251867662753,778.2443970117396,-0.43569529783755145
208,349.5888157894737,778.1513157894736,-0.4317527604040628
209,352.16516853932586,778.0629213483146,-0.43110212438048856
210,354.72923777019344,778.8282138794084,-0.4303301298078296
211,357.3402537485582,778.9677047289504,-0.42225262994079105
212,359.6388557806913,778.8379022646008,-0.4267788076153338
213,361.88769414575864,779.0991636798088,-0.4254536700231341
214,364.5141800246609,779.1565967940813,-0.41516230319111375
215,367.0465994962217,779.1448362720403,-0.4069574207839822
216,369.26199740596627,779.1984435797665,-0.41381005372496393
217,372.041504539559,779.4500648508431,-0.40674608535113893
218,374.4851752021563,779.9285714285714,-0.4088030276420948
219,376.69891008174386,779.8283378746594,-0.41338583964905595
220,379.2865090403338,780.5368567454798,-0.41952392471768674
221,381.41912798874824,780.6258790436005,-0.410648442658912
222,384.15620437956204,780.7299270072992,-0.40263049948262347
223,384.8015463917526,778.5824742268042,-0.33701615943747687
224,389.2217054263566,781.415503875969,-0.384547314701923
225,391.03789126853377,781.345963756178,-0.4468829015322379
226,393.6444805194805,782.1201298701299,-0.4245885910236191
227,395.84027777777777,781.8385416666666,-0.4347145002155744
228,398.4896551724138,782.4948275862068,-0.42568730160116836
229,400.5037735849057,782.5,-0.45108603016919396
230,402.89059500959695,782.9059500959693,-0.46601028159183927
231,405.15049504950497,783.3089108910891,-0.4600084804551229
232,407.77113402061855,783.8845360824743,-0.4791081112725832
233,410.4083885209713,784.2097130242826,-0.47678434763923755
234,413.0419426048565,784.5651214128036,-0.48082799249588076
235,415.0486111111111,784.6643518518518,-0.5314921518800575
236,417.5333333333333,785.1432098765432,-0.5510431002796012
237,419.60427807486633,785.8235294117648,-0.5795995682044928
238,422.23661971830984,786.1521126760563,-0.5953114938535015
239,424.5866261398176,786.7234042553191,-0.6233865011528164
240,426.3658536585366,786.6280487804878,-0.687920123467949
241,428.96466431095405,787.4452296819788,-0.7240737479738887
242,431.1538461538462,787.7097902097902,-0.779372089898125
243,433.1094339622641,788.1811320754717,-0.7973944250619658
244,435.39256198347107,788.1528925619834,-0.8719678530342909
245,437.9428571428571,788.8047619047619,-0.8822868168924924
246,439.92090395480227,789.090395480226,-0.9312827239203454
247,442.6978021978022,789.8131868131868,-0.9758003285401812
248,444.734693877551,790.1768707482993,-0.9676672648733459
249,446.65625,790.265625,-0.996550502230922
250,447.984375,790.1796875,-1.0518265151054311
251,450.3818181818182,790.3636363636364,-1.047376241543513
252,452.01724137931035,790.6637931034483,-1.1204008221855288
253,454.80916030534354,791.2900763358779,-1.133234659621423
254,456.9024390243902,791.7987804878048,-1.127726139617563
255,459.74545454545455,792.6666666666666,-1.100081299482909
256,462.1630434782609,793.3423913043479,-1.075830059992989
257,463.962441314554,793.8967136150235,-1.08876975715383
258,466.92561983471074,794.8719008264463,-0.9547376890605676
259,469.1818181818182,795.5265151515151,-0.8837504409115946
260,471.1311475409836,796.3245901639344,-0.8581739966137449
261,473.7299035369775,796.9549839228296,-0.6623715697152999
262,476.1540785498489,797.441087613293,-0.6326537479488743
263,478.42774566473986,798.3410404624277,-0.5292790069207672
264,480.3245382585752,798.8680738786279,-0.4526219591056736
265,483.04433497536945,799.5788177339901,-0.4302657366544761
266,485.29933481152995,800.3880266075388,-0.3351982359575365
267,487.22,800.6133333333333,-0.2755457231932858
268,489.50105263157894,801.5684210526316,-0.27574799956973056
269,491.989837398374,801.979674796748,-0.23739940276194224
270,493.7304832713755,803.0650557620818,-0.2761952925546588
271,496.2313432835821,803.7332089552239,-0.18928092260569326
272,498.2212543554007,803.9756097560976,-0.17950400776697506
273,500.75412541254127,804.5379537953795,-0.14466519275127884
274,502.432,805.5712,-0.16612312780308042
275,504.96830427892235,806.5800316957211,-0.16084731003041866
276,506.9628482972136,807.1470588235294,-0.1166879765362604
277,509.15294117647056,807.8867647058823,-0.12366020441554837
278,511.7489361702128,808.5446808510638,-0.1325093404242208
279,513.8947368421052,809.1204986149585,-0.10541651149363351
280,515.3882352941176,809.8196078431372,-0.09093228931780768
281,518.156330749354,810.8385012919897,-0.09481595352092542
282,520.2429447852761,811.6846625766871,-0.09457170032389967
283,522.2146171693736,811.9767981438515,-0.060813137486602165
284,524.347670250896,813.1170848267623,-0.06752095288846396
285,526.331797235023,813.6301843317972,-0.06049534222587202
286,528.1800000000001,814.4844444444444,-0.06730884050790868
287,530.4646464646464,814.942760942761,-0.03218187803419247
288,532.3490364025696,815.9047109207709,-0.03256930486223167
289,534.5016322089227,816.2644178454842,-0.04312863698533473
290,536.721881390593,816.258691206544,-0.01708419415875485
291,538.4817813765183,817.3522267206478,-0.02230666220773076
292,540.6949152542372,818.4037886340977,-0.020345294791725522
293,542.9421000981354,818.7173699705594,-0.01648373188434754
294,545.1439764936337,819.0088148873654,-0.0210755440547268
295,546.899419729207,819.7640232108317,-0.013362341560901473
296,549.2614942528736,820.7250957854407,-0.008775840745633529
297,551.2982791586999,821.2093690248566,0.013768369891446126
298,553.2202602230483,821.5520446096655,0.011390023821051205
299,555.3453887884268,822.0316455696202,0.025535685269212956
300,557.6429856115108,823.1160071942446,0.0037959748049985116
301,559.330411919369,824.162138475022,0.007053175466651273
302,561.5996563573883,824.7920962199313,0.013432844352041012
303,563.3107747105967,824.7444345503117,0.026972045909260126
304,565.2576301615799,825.6974865350089,0.03461703701541405
305,567.3298059964727,825.9082892416226,0.036482837775144966
306,569.3549517966696,826.5775635407538,0.04665429141907319
307,571.3065630397236,826.3402417962003,0.05632366010373303
308,573.225890529974,827.8801042571677,0.04832931245575293
309,575.2927046263345,828.2900355871886,0.05449659476540854
310,577.2545454545455,828.6311688311688,0.06671125610764339
311,579.1936056838366,829.0364120781528,0.06934925570126398
312,581.5738684884714,829.5217762596071,0.06445047395195312
313,583.237168141593,829.4654867256637,0.08068155644650633
314,585.4418402777778,830.6302083333334,0.06776664749587262
315,587.4568661971831,830.7015845070423,0.0769858664468431
316,589.3147163120567,830.8519503546099,0.09296654935073874
317,591.3394160583941,830.8275547445255,0.09040968475686063
318,593.3014899211219,831.0201577563541,0.10164427631390215
319,595.1624548736462,831.648916967509,0.10230498602748582
320,596.7089755213055,832.2402538531278,0.1323584635071516
321,599.1308056872037,831.5554502369669,0.12844309617442487
322,601.0469798657718,832.2166826462128,0.14009800871918285
323,603.0394736842105,832.4492481203008,0.1374520654863435
324,604.6771037181996,832.8708414872799,0.1499451257010684
325,606.9033864541833,832.6972111553785,0.1581555405105014
326,608.7548321464903,832.5615462868769,0.16349638995420007
327,610.6479321314953,832.6585365853658,0.18188307503595022
328,612.6353829557713,832.8554476806904,0.17654655822269433
329,614.8534385569335,832.3190529875986,0.21088496133678117
330,616.9572748267899,832.4965357967667,0.21678432576670992
331,618.7032569360675,832.3112183353438,0.23610689651897035
332,620.9302884615385,832.5504807692307,0.2440101616380287
333,622.5508365508365,832.4581724581725,0.26886613370576995
334,624.6622516556291,832.1377483443708,0.2851475178806396
335,626.6387726638773,832.1548117154812,0.3014952293409958
336,628.6705035971223,831.7553956834532,0.31368876056880546
337,630.8123076923077,831.623076923077,0.34826686859951944
338,632.463492063492,832.1095238095238,0.3613830062483193
339,634.7898305084746,831.4101694915254,0.3916633562801834
340,636.656307129799,831.1553930530165,0.4178486626409115
341,638.783203125,830.91796875,0.4507260409802881
342,640.5148305084746,831.1737288135594,0.5042967399051297
343,642.7848970251716,830.4805491990846,0.5443694753488174
344,644.994923857868,830.0736040609137,0.5990711666077676
345,646.8960674157304,829.9550561797753,0.6369223274447408
346,649.0402476780185,829.5727554179566,0.6887454382059884
347,651.1760563380282,829.1021126760563,0.7662182374920946
348,652.9644444444444,829.0888888888888,0.8258653635478027
349,655.4666666666667,828.5733333333334,0.9422356326706979
350,656.840490797546,828.7484662576687,0.9619045982153869
351,658.1895424836601,829.0522875816994,1.032187990622813
352,659.9724137931034,829.048275862069,1.0837470619311464
353,662.0709677419355,829.0064516129032,1.1595569565059314
354,663.4574468085107,829.1117021276596,1.2555162160512938
355,665.6213592233009,828.7621359223301,1.279790387882732
356,667.64,828.4639999999999,1.3335480558802424
357,669.4945454545455,828.0727272727273,1.4058469169826457
358,671.8990536277603,827.8359621451104,1.4627154507875564
359,673.7942857142857,827.5457142857143,-1.5693358121929886
360,676.1620253164557,826.9113924050633,-1.4497443617175245
361,677.8258823529412,826.6682352941176,-1.3550774938524217
362,680.1859956236324,826.4551422319474,-1.009016890232959
363,682.0684647302904,825.8319502074689,-0.7181712617311478
364,684.296992481203,825.8515037593985,-0.571506463298809
365,686.0417422867514,825.1851179673321,-0.47510520047557986
366,688.2739726027397,825.0633561643835,-0.357959132281747
367,690.4447900466563,824.5769828926905,-0.3275535952186024
368,692.6137724550898,824.4131736526946,-0.27629333402688816
369,694.5382262996942,824.0412844036697,-0.2754156010880381
370,696.7962962962963,824.0014245014245,-0.23174984606480117
371,698.8645833333334,823.6158854166666,-0.21737370584335716
372,700.7894056847546,823.219638242894,-0.22729166372969345
373,703.1509433962265,823.1937106918239,-0.23821569196482037
374,704.9745454545455,822.8339393939394,-0.19584871849025037
375,707.2223557692307,822.5288461538462,-0.1808787261118934
376,709.3086560364465,822.3895216400911,-0.1792009403805193
377,711.3329583802025,822.3453318335208,-0.16391525061833476
378,713.3434782608696,822.0282608695652,-0.14587983364420845
379,715.4086021505376,821.9268817204301,-0.12678321108913929
380,717.6518987341772,821.7310126582279,-0.15192721124300462
381,719.6520833333334,821.4104166666666,-0.12048157728439254
382,721.6733870967741,820.914314516129,-0.12789557645342306
383,723.9163385826772,821.3543307086615,-0.11211093159232283
384,725.9294234592445,821.3081510934394,-0.1103934353261108
385,728.4191449814126,821.3949814126394,-0.11836491779159033
386,730.0502415458938,820.9227053140097,-0.09777131999651074
387,732.1506849315068,820.6966731898239,-0.08811068483419052
388,734.2770642201835,821.6596330275229,-0.11047751140696589
389,736.2828571428571,820.6657142857143,-0.09305256720837173
390,738.3405600722674,821.0451671183379,-0.09395777912946766
391,740.3828197945845,821.0504201680673,-0.09395645207411459
392,742.4926470588235,821.2693014705883,-0.09711097551370793
393,744.4178403755868,820.4544600938967,-0.0859147858529228
394,746.5464788732395,821.1220657276996,-0.08701376231522062
395,748.4231856738926,820.7106503298775,-0.07898119535478304
396,750.6347746090156,821.9917203311868,-0.08189115806887896
397,752.8471698113208,821.2943396226415,-0.08405929520325606
398,754.8383658969805,821.1563055062167,-0.08789106475871182
399,756.8618042226487,821.352207293666,-0.07493862200183266
400,758.8542857142857,821.6609523809524,-0.07791034059729882
401,761.0814956855226,821.9041227229146,-0.07327404055881132
402,762.7792836398838,822.0600193610842,-0.07304478862229079
403,764.9794921875,822.4287109375,-0.078702933850754
404,767.1807802093244,823.4519505233111,-0.09452561048627628
405,769.2512218963832,823.0097751710655,-0.07802565604186788
406,771.0084825636193,823.0735155513667,-0.06878377036995618
