FrameNo,Row,Column,Angle
150,104.6748466,967.3047035,0.45088309
151,105.2932166,966.7067834,0.4875839
152,106.0337553,966.1118143,0.523080588
153,107.1704545,964.9863636,0.57120433
154,107.9111617,964.428246,0.630934809
155,108.9393939,963.3216783,0.73218408
156,110.1581395,962.5209302,0.789933972
157,110.6811594,961.9082126,0.865013891
158,111.3573086,961.2343387,1.032079299
159,111.9300226,960.6072235,1.259241044
160,112.6682028,959.8271889,-1.103062436
161,113.4668094,958.7558887,-0.71688462
162,114.1875,957.5625,-0.598721218
163,114.922619,956.718254,-0.510595815
164,115.7827789,955.3405088,-0.452284191
165,116.5996241,954.2086466,-0.39957271
166,117.5732143,952.825,-0.354787137
167,118.4142857,952.1535714,-0.305170669
168,119.3683333,950.98,-0.265270169
169,120.2371476,949.5240464,-0.246832197
170,121.2445923,948.3061564,-0.212891563
171,122.1435331,946.8548896,-0.185625918
172,122.9109063,945.1105991,-0.177539566
173,124.164869,945.4899846,-0.146890566
174,124.976155,943.4754098,-0.133630917
175,126.0787172,942.4548105,-0.117069212
176,127.1574468,941.6780142,-0.091294545
177,128.2693997,940.3923865,-0.072475196
178,129.2559441,940.1188811,-0.071379492
179,130.305036,939.4129496,-0.061143943
180,131.251046,937.7963738,-0.047194097
181,132.2472527,936.9478022,-0.033449961
182,133.6494565,937.4035326,-0.016762355
183,134.6318608,936.7255689,-0.012169846
184,135.7536814,935.497992,0.003073071
185,136.9394773,936.2255846,-0.000167173
186,138.0213049,935.3754993,0.016530733
187,139.0949198,935.3074866,0.031544712
188,140.1194409,936.3227446,0.036640458
189,141.3974026,934.4454545,0.052535643
190,142.4039735,935.5364238,0.054017086
191,143.4666667,935.0517007,0.067266735
192,144.8154839,933.9264516,0.088795043
193,145.9008499,934.9135977,0.088995472
194,146.7527027,935.577027,0.097555436
195,147.900838,935.8240223,0.1043473
196,148.5889047,937.3826458,0.116339359
197,149.7437408,937.9351988,0.129328935
198,150.8759232,937.6587888,0.146093086
199,152.1200608,937.8662614,0.149971739
200,152.7688953,939.940407,0.157671906
201,153.7846386,939.2364458,0.161740712
202,154.890937,940.1367127,0.171883989
203,155.75,942.0728477,0.199712546
204,156.9872727,942.9345455,0.214187694
205,157.7889273,943.9567474,0.241556412
206,159.0404624,943.9171484,0.24260494
207,159.9321357,945.4550898,0.269907391
208,160.8948454,946.843299,0.293656027
209,161.6240157,947.742126,0.307322273
210,162.6681416,949.1548673,0.34502106
211,163.5873362,950.6877729,0.380398054
212,164.5128205,952.02331,0.407688906
213,164.7945205,953.6803653,0.449147411
214,165.7695853,954.640553,0.459018227
215,166.9002695,956.2911051,0.536389891
216,167.5994475,957.8342541,0.60398364
217,168.3509749,959.3899721,0.262349791
218,169.1098266,960.9768786,-0.704481165
219,169.5784884,962.2906977,-0.579267367
220,170.6031746,963.631746,-0.513569577
221,170.9970414,964.3816568,-0.453708767
222,171.6732394,965.6507042,-0.392430332
223,172.1111111,966.5906433,-0.338728707
224,172.8039773,967.4034091,-0.302700133
225,173.5472779,968.8567335,-0.259022716
226,174.0414201,969.0029586,-0.225574818
227,174.8012048,970.3945783,-0.189400292
228,175.4149856,971.221902,-0.168594232
229,175.9577465,971.9746479,-0.148843067
230,176.6394366,972.7887324,-0.129041078
231,177.3666667,974.2666667,-0.110373485
232,178.0418994,974.3994413,-0.086191149
233,178.4948454,975.2036082,-0.0622166
234,179.2788204,975.9544236,-0.065105139
235,179.664,976.432,-0.047554779
236,180.303653,977.9406393,-0.03372262
237,181.0559796,977.8600509,-0.023759248
238,181.6004902,978.7941176,-0.015042253
239,182.3961814,980.0906921,-0.009534504
240,183.0380048,979.3372922,0.008272142
241,183.6078886,979.8445476,0.016071559
242,184.2048458,980.4625551,0.02190812
243,184.9631236,980.7353579,0.032258805
244,185.5665236,980.3776824,0.038497062
245,186.2866242,981.4012739,0.046364167
246,186.8325359,981.0311005,0.053155946
247,187.5051125,981.6278119,0.067644359
248,188.175644,981.2084309,0.071322823
249,188.6969697,981.967366,0.07479431
250,189.4947589,981.5283019,0.090182902
251,190.0072639,981.220339,0.094181789
252,190.8805147,981.3308824,0.107989161
253,191.6810345,980.3685345,0.11586482
254,192.1746881,981.7165775,0.121127488
255,193.0507813,980.5078125,0.134298279
256,193.6555118,980.8287402,0.140747454
257,194.3418468,980.1709234,0.156031056
258,195.0904159,979.8173599,0.165171536
259,195.812616,979.5139147,0.168039927
260,196.4040219,979.6380256,0.177534009
261,197.3037037,978.6833333,0.191179272
262,198.1660517,977.4778598,0.208570956
263,198.8425047,976.5787476,0.235072651
264,199.7194861,975.3747323,0.243091687
265,200.2174797,975.1747967,0.267113293
266,201.377193,973.3969298,0.284665144
267,202.0856531,973.2248394,0.298454847
268,202.7195122,972.5792683,0.32891598
269,203.5911111,971.4022222,0.362418967
270,204.4231678,970.5886525,0.385538516
271,205.4534314,969.2279412,0.42319452
272,206.6495098,967.9607843,0.459560118
273,207.6767677,966.7727273,0.529971345
274,208.5593668,965.8759894,0.578388612
275,209.3352436,965.017192,0.622129814
276,210.5449591,964.2942779,0.696781087
277,210.8181818,964.0991736,0.718628768
278,211.694517,963.2898172,0.901621498
279,212.5498721,962.3401535,-0.362847293
280,213.1696203,961.7063291,-0.414630152
281,213.8623188,960.8067633,-0.437963503
282,214.5509259,959.6087963,-0.427503762
283,215.6386364,958.6181818,-0.351946867
284,216.2113636,957.2295455,-0.330528993
285,217.184265,955.8095238,-0.294142634
286,217.6901408,954.1348089,-0.244379188
287,218.6815534,953.0213592,-0.213434234
288,219.857685,951.8880455,-0.195338635
289,221.0618182,951.6709091,-0.179850822
290,221.7400722,949.7472924,-0.157270628
291,222.6808149,948.6129032,-0.125627292
292,223.3372483,946.9211409,-0.1250694
293,224.4571918,946.5239726,-0.117587549
294,225.4361022,944.3051118,-0.09459112
295,226.4006211,943.4689441,-0.076283018
296,227.4336,943.76,-0.073323044
297,228.2601246,941.728972,-0.062282494
298,229.3818722,941.218425,-0.046619666
299,230.6092308,941.3061538,-0.041121497
300,231.3501484,940.5445104,-0.030099724
301,232.4832317,939.8353659,-0.020245032
302,233.6525547,939.4175182,-0.009985069
303,234.5997024,938.0639881,-0.002522339
304,235.8280802,937.9240688,0.002771689
305,236.6443452,938.985119,0.006249767
306,237.7970803,937.7518248,0.019669654
307,238.702514,938.0223464,0.030168824
308,239.7485207,938.5281065,0.02488332
309,240.8452381,937.9285714,0.040763545
310,241.9063963,937.274571,0.049327422
311,242.8858521,937.6350482,0.056515377
312,243.7315341,938.0326705,0.060859577
313,244.9535232,937.3013493,0.071935741
314,246.1122754,938.2095808,0.08439441
315,246.9393468,938.4354588,0.081923307
316,247.8336134,939.805042,0.08772659
317,248.9584615,939.7876923,0.103323528
318,249.9701987,940.2168874,0.114212611
319,250.9602076,940.449827,0.110239128
320,251.9660194,941.7880259,0.131940343
321,253.03663,942.1849817,0.135537144
322,253.8939096,943.7151277,0.143008494
323,254.7134269,944.0300601,0.151541521
324,255.6479167,945.475,0.16504253
325,256.5391304,946.0847826,0.179002828
326,257.6373626,947.2065934,0.205386233
327,258.3772727,948.6977273,0.209078911
328,259.1320755,950.5492662,0.226814188
329,260.1574074,951.2291667,0.242003764
330,261.0719794,952.2287918,0.258586235
331,261.8548387,953.4354839,0.276531285
332,262.7765957,954.8218085,0.313488984
333,263.4850136,957.1117166,0.293166725
334,264.6585366,957.6280488,0.339820826
335,265.3807947,959.3774834,0.311970957
336,266.2178218,961.1617162,0.251207856
337,267.0611511,962.6115108,-0.116079519
338,267.747331,963.7117438,-0.321619796
339,268.4733333,965.3133333,-0.315877732
340,269.0620438,966.4562044,-0.316018162
341,269.8754209,967.5757576,-0.318315714
342,270.283871,968.5548387,-0.256155175
343,270.9806452,969.5645161,-0.228528979
344,271.6072607,970.359736,-0.186523406
345,272.1827586,970.9448276,-0.161370229
346,272.9271523,972.2417219,-0.147628122
347,273.6432749,973.1432749,-0.139478475
348,274.2093023,974.3546512,-0.10309608
349,274.7573333,974.3973333,-0.086605011
350,275.3843844,975.4684685,-0.078392582
351,276.1666667,976.0718391,-0.063006977
352,276.4731707,978.7682927,-0.05941228
353,277.4040115,977.3467049,-0.041088793
354,278.0349462,978.5564516,-0.03044618
355,278.8137755,979.5076531,-0.030669541
356,279.359375,979.640625,-0.018209871
357,280.193154,981.1564792,-0.012665324
358,280.8457711,981.6940299,0.002184602
359,281.4635922,982.1966019,0.003069716
360,282.0936768,983.3255269,0.011009613
361,282.7672811,983.4516129,0.020441086
362,283.4838013,984.6263499,0.02871469
363,284.1959459,984.1666667,0.035298762
364,284.9106029,984.8711019,0.037973847
365,285.6195426,984.7546778,0.048063108
366,286.3598326,984.5,0.052082788
367,286.9376258,984.917505,0.060720909
368,287.6948454,985.5319588,0.062347762
369,288.3837209,985.4922481,0.069800174
370,289.1968191,984.4493042,0.078430182
371,289.7447699,985.3682008,0.081278118
372,290.369287,985.1023766,0.084665061
373,291.2355289,984.6307385,0.097571256
374,291.9468085,984.8457447,0.096563469
375,292.6620553,984.0296443,0.111379599
376,293.1660079,984.2628458,0.115883094
377,294.0772358,983.7723577,0.125095556
378,294.7911025,982.8065764,0.131965848
379,295.5737705,982.701275,0.14400178
380,296.1898067,981.9173989,0.150452248
381,296.9704797,981.9575646,0.162454081
382,297.9677419,980.3419355,0.168278778
383,298.8785872,979.1169978,0.182640409
384,299.3386774,979.0581162,0.206275467
385,300.4297521,976.9607438,0.208225692
386,301.2150538,976.3806452,0.225662952
387,301.9002217,976.4789357,0.244929929
388,302.9571429,974.3166667,0.277817925
389,303.8626943,973.0129534,0.286986953
390,304.6167076,972.5970516,0.330178752
391,305.7549505,971.8069307,0.322118453
392,306.0559796,971.302799,0.395402067
393,307.4394366,969.1211268,0.442948992
394,308.7121212,967.7848485,0.449646894
395,309.4867257,967.2477876,0.517250621
396,310.3248408,966.477707,0.528880866
397,311.091195,965.7578616,0.387278031
398,312.0174419,965.4738372,0.027002815
399,312.4832827,964.3465046,-0.184302996
400,313.0964912,963.6111111,-0.263214121
401,314.1242775,962.800578,-0.309585387
402,314.6476965,961.8644986,-0.284745144
403,315.6625616,960.5640394,-0.225935824
404,316.4495413,959.4243119,-0.219460891
405,317.3560976,957.8682927,-0.199435779
406,318.2149321,956.7488688,-0.191605745
407,318.9708333,955.7291667,-0.148006461
408,319.7975207,954.9710744,-0.132974198
409,320.8117409,953.1072874,-0.112343545
410,321.6959707,951.7362637,-0.105923841
411,322.5400372,950.7839851,-0.091995952
412,323.3400366,949.5191956,-0.084173057
413,324.1405405,948.4522523,-0.07360215
414,325.4144295,947.0167785,-0.064992591
415,326.5568562,946.4531773,-0.05807371
416,327.1884058,944.6413043,-0.050401308
417,328.1951641,944.2953368,-0.040119251
418,329.1282895,943.0723684,-0.029304289
419,329.959322,941.7728814,-0.020390486
420,331.2313665,942.8121118,-0.008867684
421,331.9810726,942.0883281,-0.013790021
422,333.0425197,941.9606299,-0.002586241
423,333.995106,941.2642741,-0.000141009
424,334.8888889,940.3913765,0.007236249
425,335.6839695,941.2290076,0.01540389
426,336.9317829,940.2852713,0.007240668
427,337.7699531,940.3818466,0.011803842
428,338.7380952,939.8639456,0.025867095
429,339.5606759,940.7127496,0.0246557
430,340.5084485,940.5345622,0.029111118
431,341.7266776,939.9967267,0.035803326
432,342.8597285,940.6184012,0.0320579
433,343.6435484,941.0903226,0.047592302
434,344.4200323,942.1179321,0.048589507
435,345.4858097,941.1669449,0.059840557
436,346.4965278,941.3038194,0.063463501
437,347.2832765,942.7354949,0.057784822
438,348.2241993,942.9145907,0.07485284
439,349.1164875,943.9408602,0.079299546
440,350.0823529,944.3529412,0.085183015
441,350.9628099,945.0785124,0.082994337
442,351.8661568,946.8145315,0.092261827
443,352.5564356,947.7663366,0.09824499
444,353.6628959,947.2918552,0.103395374
445,354.6533333,948.1977778,0.110892775
446,355.2962138,950.1893096,0.109726277
447,356.1734694,950.8520408,0.118276883
448,357.0265252,951.9814324,0.13744531
449,357.9088398,953.3342541,0.145455226
450,358.9072464,954.2898551,0.156315351
451,359.6223565,955.858006,0.154869208
452,360.4058442,957.1428571,0.153549428
453,361.3645833,958.5173611,0.176388992
454,362.112782,959.8383459,0.144303355
455,362.984556,961.4131274,0.114861053
456,363.6764706,962.4831933,-0.019252431
457,364.6517857,964.0714286,-0.114174722
458,365.4102564,965.2008547,-0.243022531
459,366.309322,966.2838983,-0.171333202
460,366.75,967.4596774,-0.187989403
461,367.6223022,968.6870504,-0.153396991
462,368.0962199,969.3195876,-0.139246699
463,368.3145695,969.9602649,-0.133900504
464,369.2218543,970.6688742,-0.09489207
465,369.9022082,971.8548896,-0.077613664
466,370.7678571,973.3839286,-0.074106833
467,371.4655172,974.3649425,-0.061503189
468,371.9969231,974.4430769,-0.040258267
469,372.6404834,975.6616314,-0.032236132
470,373.4746667,976.3413333,-0.01777379
471,373.8695652,977.5951087,-0.01913009
472,374.7030812,978.0420168,-0.012263319
473,375.5218579,979.1693989,-0.001108367
474,376.337766,980.2367021,-0.00331687
475,376.8019324,981.294686,0.006799364
476,377.5878378,983.0405405,0.013733293
477,378.2878049,983.3658537,0.008881967
478,379.0023641,984.1654846,0.021447377
479,379.6780822,985.1484018,0.020744692
480,380.5362637,985.2945055,0.022888483
481,381.210101,986.0383838,0.02933687
482,381.8432122,986.0210325,0.036128793
483,382.8029661,986.5211864,0.039776036
484,383.4294737,987.1263158,0.045009259
485,384.1319588,987.2639175,0.046870202
486,384.9188034,987.508547,0.049904868
487,385.7259714,987.3537832,0.053931812
488,386.6519337,987.7090239,0.052624901
489,387.243083,988.013834,0.058711348
490,388.0394265,986.8853047,0.071529313
491,388.6607843,987.5078431,0.06824716
492,389.3661485,987.746114,0.073924864
493,390.0919765,988.2133072,0.070190346
494,391.0322581,987.718638,0.078609178
495,391.8083183,987.3797468,0.077306892
496,392.5608856,985.6734317,0.092521255
497,393.1836364,986.4618182,0.098313603
498,393.9517103,985.7967807,0.101660175
499,394.9291188,985.0613027,0.093662208
500,395.5834933,985.0191939,0.109243228
501,396.2718254,984.5952381,0.119682822
502,397.38833,982.7162978,0.129414878
503,398,981.4145299,0.134017607
504,398.9066059,980.9863326,0.143913103
505,399.5086207,980.0948276,0.151821435
506,400.527115,979.2819957,0.155346637
507,401.5772947,977.7004831,0.175055197
508,402.3469388,976.502551,0.188089165
509,402.9819588,975.9381443,0.208248274
510,404.2822581,973.8682796,0.228314259
511,405.0168539,972.8820225,0.238601537
512,406.1238938,971.2890855,0.263312527
513,406.579661,970.9288136,0.301910014
514,407.6564626,969.8673469,0.320814631
515,407.8935185,969.5509259,0.291628193
516,409.5531136,967.6813187,0.287401913
517,410.2265625,967.5273438,0.296083853
518,410.7975207,966.7561983,0.084204386
519,411.5924528,966.0754717,-0.050555402
520,412.338558,964.7021944,-0.085452032
521,412.8984615,964.3938462,-0.103203889
522,413.9662921,962.6910112,-0.148013188
523,414.9307479,962.1135734,-0.117418392
524,416.2098446,961.4974093,-0.164530197
525,416.5793651,960.0820106,-0.112381929
526,417.5589623,959.5872642,-0.13608158
527,418.1839623,956.8136792,-0.092975228
528,419.020316,956.5688488,-0.090043222
529,419.9321663,955.1356674,-0.077031791
530,420.8797468,954.3185654,-0.068359487
531,421.4553015,952.6008316,-0.05130363
532,422.6857143,951.6,-0.057391101
533,423.499006,951.1153082,-0.05106895
534,424.3313492,949.4424603,-0.037306714
535,425.2148438,948.2128906,-0.022320929
536,425.8933092,947.3779385,-0.014743296
537,426.8734622,946.9859402,-0.013611649
538,427.6866538,945.0560928,-0.014722029
539,428.6378378,944.3009009,-0.014518757
540,429.6982143,944.075,-0.012326187
541,430.3939394,943.5561497,-0.004137208
542,431.3897181,944.5588723,-0.003232783
543,432.2798574,943.2638146,-0.00601864
544,433.1892361,942.8125,-0.00097514
545,434.0120275,942.9931271,0.006449471
546,434.9917492,942.4422442,0.004453146
547,435.8458844,942.3415061,0.007304658
548,436.7678883,941.9057592,0.011399721
549,437.6068966,942.1965517,0.013188118
550,438.5069204,941.9273356,0.016730963
551,439.5088028,941.6602113,0.020037316
552,440.4319328,942.7243697,0.021508787
553,441.1675774,943.3825137,0.020287337
554,442.0465116,943.0876565,0.024409332
555,442.9311594,943.4547101,0.024622247
556,443.8571429,943.4793233,0.032641897
557,444.6018018,945.5747748,0.028855334
558,445.6610801,944.858473,0.02876799
559,446.3288973,946.4505703,0.034696108
560,447.1733577,947.2737226,0.033258941
561,448.2025586,945.9808102,0.038210937
562,449.0690377,947.7552301,0.039188741
563,449.9088838,948.7448747,0.03970647
564,450.7929412,949.4541176,0.046315378
565,451.4892086,951.0935252,0.043059343
566,452.3488372,951.7023256,0.036125971
567,453.2309711,951.8897638,0.040193724
568,454.0845771,953.2985075,0.0438182
569,454.959893,954.815508,0.041115726
570,455.6036036,956.3813814,0.045575375
571,456.7854985,957.2567976,0.022774476
572,457.4793103,958.3241379,0.049355572
573,457.9007937,959.6230159,0.01086681
574,458.8781513,960.5336134,0.039578809
575,459.662037,962.3101852,-0.0355127
576,460.385,963.605,-0.07022384
577,460.9175258,964.5515464,-0.165497031
578,461.6872247,965.2995595,-0.220884172
579,462.3852814,966.5021645,-0.150980734
580,463.7148594,967.6184739,-0.089664048
581,464.338403,969.0722433,-0.060799334
582,464.9318996,969.2293907,-0.062407997
583,465.7342657,970.1993007,-0.024828861
584,466.2833333,971.51,-0.018574974
585,467.2605863,972.4397394,-0.023419486
586,467.6994048,972.3839286,-0.010466661
587,468.4342508,974.5932722,-0.003298318
588,469.1428571,974.9008746,0.013314394
589,469.9232877,976.1835616,-0.001157001
590,470.327027,977.4621622,0.0131121
591,471.2867647,979.4436275,0.029648345
592,472.1755319,979.3617021,0.026829516
593,472.7170264,980.5995204,0.022722463
594,473.5023585,981.3867925,0.019410326
595,474.2287105,983.0024331,0.023385363
596,475.130719,983.2309368,0.034754002
597,475.7868852,984.8337237,0.026009161
598,476.5833333,985.1509009,0.031994186
599,477.2953586,985.9746835,0.03678866
600,477.9980545,986.6303502,0.025010055
601,478.8306452,987.1149194,0.041246377
602,479.7866928,987.9686888,0.042641881
603,480.3713733,989.0193424,0.03379702
604,481.2564103,988.8919414,0.035477684
605,481.9220273,988.5087719,0.040070132
606,482.7441406,989.6445313,0.043011887
607,483.6846011,988.9591837,0.045724035
608,484.4829545,988.9526515,0.0462017
609,484.987013,989.4638219,0.047037587
610,485.9911817,988.8712522,0.054137491
611,486.7793594,988.7099644,0.051545072
612,487.5741811,990.1522158,0.04887488
613,488.1877323,989.3159851,0.054391516
614,488.7555556,990.0703704,0.058727785
615,489.8206039,989.9147425,0.056781446
616,490.8589744,989.7289377,0.056469843
617,491.4110429,988.4376278,0.062925715
618,492.3084677,987.7842742,0.061165324
619,493.2982456,987.3411306,0.066017594
620,494.0133588,986.8072519,0.064930768
621,494.9043659,986.1164241,0.067944688
622,495.7442348,985.0628931,0.073732583
623,496.3376906,984.4357298,0.076389467
624,497.3868922,983.9809725,0.08091969
625,498.1069042,982.5367483,0.08653187
626,499.1036036,981.8445946,0.103499745
627,500.0547264,980.6641791,0.096968224
628,500.7336815,979.6684073,0.099718134
629,501.6766917,979.085213,0.103119277
630,502.4807198,978.0976864,0.120128831
631,503.3374233,976.1932515,0.139585082
632,504.0931677,975.1708075,0.136045104
633,504.8872727,973.7454545,0.167928389
634,505.8515901,972.6219081,0.178637226
635,506.695122,971.2317073,0.192237634
636,507.2535211,970.0469484,0.232370393
637,508.120603,969.1507538,0.217126636
638,508.7524272,968.6116505,0.177883058
639,509.8907563,967.6218487,0.079791646
640,510.6923077,966.7230769,0.040987243
641,511.5795455,965.4621212,0.012498426
642,512.4494774,964.5714286,0.003283105
643,513.1357143,963.3928571,-0.026085205
644,514.1178344,962.8184713,-0.039984294
645,514.7680251,962.0626959,-0.03988718
646,515.6123596,961.1882022,-0.038969623
647,516.4217877,958.9888268,-0.020793347
648,517.2465374,958.4432133,-0.037809299
649,518.1893939,956.9520202,-0.028196128
