FrameNo,Row,Column,Angle
76,19.551939924906133,753.9224030037547,0.6433695621126175
77,21.177254901960783,754.2517647058824,0.6156762021798278
78,23.020145044319097,754.269943593876,0.6013673503095092
79,25.164763458401303,754.0138662316476,0.571045900314103
80,26.535094962840628,754.6507018992568,0.5144918526713992
81,28.893379191745485,753.9097162510748,0.5043546403586893
82,29.981497056349873,754.4365012615643,0.4850013075549482
83,32.19676320272573,753.9241908006815,0.4611421460229897
84,33.3686553873553,754.8210151380232,0.43016602416244126
85,35.54761904761905,754.2051282051282,0.4054703981045356
86,36.810859728506784,753.8805429864253,0.37892248785852184
87,39.181905678537056,753.7738209817132,0.35717885269390154
88,40.48659384309831,753.6474677259185,0.3376632826168336
89,42.11916583912612,753.3445878848064,0.3201351052045805
90,44.21836734693878,752.9234693877551,0.29419016698290257
91,45.660714285714285,752.1827731092437,0.26947120053701423
92,47.269772481040086,752.0715059588299,0.2657640407641379
93,49.1218441273326,751.9264544456641,0.2347827379881195
94,50.65057471264368,751.1977011494253,0.20838277346837933
95,52.244365361803084,750.9134045077105,0.1800189424297476
96,53.675471698113206,750.6025157232705,0.18608649098980823
97,55.21862871927555,750.091849935317,0.15377889803504124
98,56.70117955439056,749.7509829619921,0.12542308376584296
99,58.31693989071038,748.9234972677596,0.10651151469070394
100,59.92318634423898,748.4366998577525,0.08625177307620321
101,61.60401721664275,747.8479196556672,0.09728758679756042
102,62.587443946188344,747.4035874439462,0.07835286407535204
103,64.26121794871794,746.7211538461538,0.040225037082096404
104,65.35314091680814,746.0611205432937,0.0141427841722454
105,66.78745644599303,745.4756097560976,0.003237874530476401
106,68.34965034965035,744.9003496503497,-2.678969020474003e-05
107,69.3105360443623,744.539741219963,-0.0016377988640525916
108,71.20039292730844,743.2966601178782,-0.05976933995598454
109,71.96666666666667,743.1156862745098,-0.03438417978623007
110,73.52267818574514,742.1425485961123,-0.06342453650556999
111,74.69419642857143,741.4508928571429,-0.09693260969160121
112,76.0,741.1651785714286,-0.1254192518844978
113,77.28192771084338,740.9566265060241,-0.12869392978491637
114,78.74545454545455,739.975,-0.07399104140568874
115,79.92727272727272,739.8805194805195,-0.10761617139228948
116,80.79569892473118,739.1935483870968,-0.12091872654592738
117,82.2336956521739,738.3342391304348,-0.1936114656489873
118,82.59574468085107,737.4840425531914,-0.172464000696112
119,84.17629179331307,736.7446808510638,-0.11442814691669767
120,85.027950310559,736.4068322981367,0.03878119012190625
121,86.71746031746032,735.0888888888888,-0.002686909688785206
122,87.51070336391437,734.5137614678899,0.18662922877241978
123,88.60899653979239,733.1280276816609,0.08769236310566644
124,89.99,732.2366666666667,0.13545554465651868
125,90.8625,730.996875,0.1282385386278164
126,91.69158878504673,729.7258566978193,0.09540037312086787
127,92.77064220183486,728.8593272171254,0.08375666129524095
128,93.81818181818181,727.6832844574781,0.06155384334021744
129,94.25748502994011,726.6047904191616,0.05162465636946146
130,95.08488063660478,725.2254641909815,-0.009562377716130582
131,96.08055555555555,725.4805555555556,0.028814139064189788
132,96.95652173913044,724.5190217391305,-0.036995418565877715
133,97.45700245700246,723.3538083538083,-0.02167037411100139
134,98.27923627684964,722.3102625298329,-0.051595079249448624
135,99.3806146572104,721.7352245862884,-0.09109510001384098
136,100.3112582781457,721.167770419426,-0.11419642556255932
137,100.63656884875847,719.3792325056434,-0.14482416419458138
138,101.14686825053995,718.5550755939524,-0.1559465061339318
139,101.84599589322382,718.0924024640657,-0.17972712568395
140,102.73319755600815,717.0427698574338,-0.1824912986859647
141,103.59920634920636,716.7777777777778,-0.22190012142048504
142,103.74181117533719,715.0886319845857,-0.2382044917066661
143,104.57846715328468,714.7135036496351,-0.24379911290444262
144,104.96028880866426,713.9584837545126,-0.26901787767662066
145,105.79444444444445,713.5611111111111,-0.27343061386820294
146,106.36551724137931,713.1327586206896,-0.2982963703743487
147,106.63893510815308,711.855241264559,-0.3284357807605035
148,107.34621578099839,711.8808373590982,-0.33836294905645287
149,108.21806853582555,711.8551401869158,-0.3601806858687899
150,108.89924812030075,710.972932330827,-0.38566718898164815
151,108.74573643410852,709.5193798449612,-0.3881837968755901
152,109.8506588579795,710.4245973645681,-0.3985168971397604
153,110.01164483260553,709.3944687045124,-0.4228334485241591
154,110.85502958579882,709.3002958579882,-0.4278562304898328
155,111.9013698630137,710.0342465753424,-0.4615419033589061
156,112.22689075630252,709.5266106442577,-0.45335831058154646
157,112.6413881748072,709.0668380462726,-0.48799534938094985
158,113.30670103092784,709.7306701030927,-0.47429015710074957
159,113.58278145695364,708.394701986755,-0.5190635932470659
160,114.1825293350717,707.6936114732725,-0.5235447588952937
161,114.43016069221261,707.2286773794808,-0.54080632075991
162,115.88466579292268,708.7339449541284,-0.5701316405296118
163,115.96233292831106,708.404617253949,-0.5987818708872007
164,116.87484035759898,708.3269476372925,-0.6120716747253135
165,117.037691401649,708.4570082449941,-0.6502583635789037
166,118.66310794780546,709.4068801897984,-0.6536784254012683
167,118.43154034229829,708.239608801956,-0.6869726463300037
168,119.36935866983373,708.3812351543943,-0.6971501279173195
169,120.4307875894988,709.3937947494034,-0.7152017343468452
170,121.04039167686659,709.1591187270502,-0.7485593502421392
171,121.48488512696494,709.4147521160822,-0.7747283906066862
172,122.46190476190476,709.5904761904762,-0.7949527091301561
173,122.78866587957496,709.801652892562,-0.8337954582365278
174,123.38277511961722,709.7535885167464,-0.8679095680096356
175,124.75142531356899,710.7890535917902,-0.890199979826019
176,125.19362455726092,710.681227863046,-0.9225108107182127
177,126.04861111111111,711.2627314814815,-0.9545591558963854
178,126.65940366972477,711.1961009174312,-0.9879655727688342
179,127.05936073059361,711.5958904109589,-1.0349860304133347
180,127.4485049833887,711.9944629014396,-1.09599374423538
181,129.13492063492063,712.4648526077098,-1.100091517913529
182,129.48821548821547,712.9337822671156,-1.1768563079501027
183,130.40934371523917,713.6473859844272,-1.2079270772404767
184,131.0618101545254,713.8532008830022,-1.2693746173868052
185,131.38403451995686,714.1812297734627,-1.330979947579853
186,132.718006795017,714.8165345413363,-1.3791735423605733
187,133.19741100323625,715.6601941747573,-1.4626997705596037
188,134.44506104328525,715.8623751387347,-1.512778284802219
189,135.1741022850925,716.6779107725789,1.5631822728593718
190,135.87568157033806,717.0937840785169,1.483450372964465
191,136.86392405063293,717.9662447257384,1.4177332510295075
192,137.94468085106382,718.4159574468085,1.3252879577585044
193,139.83040330920372,719.3195449844881,1.3246520577063046
194,140.06188925081432,719.4755700325733,1.1888518758881974
195,140.9142857142857,720.3301587301587,1.0954116611206073
196,142.102454642476,720.7491995731057,1.052477169342243
197,143.45883534136544,721.2299196787149,0.9882576428657028
198,143.93462717058225,722.0051072522982,0.9027854556661479
199,145.16378433367242,722.46998982706,0.8609655826824766
200,146.57641025641027,722.9251282051282,0.8160106475622699
201,147.34826883910387,723.5234215885947,0.7515887872787376
202,148.31983805668017,724.1204453441295,0.6962867038913441
203,149.526,724.361,0.6596872152452218
204,150.43668993020935,724.8783649052841,0.6142633334614186
205,151.55544147843943,725.2145790554415,0.568901258444863
206,153.0297619047619,725.5803571428571,0.5704964694636582
207,153.8,725.9080808080809,0.5098232932851797
208,155.12155260469868,725.7660878447396,0.4507837719306894
209,155.64636542239685,727.1709233791748,0.44472885320564937
210,157.49045226130653,726.0120603015075,0.4082526324173056
211,158.50864699898273,727.1820956256358,0.3832127832188599
212,159.34071729957805,727.3386075949367,0.3623803571987475
213,160.7438524590164,727.4948770491803,0.34162243423003213
214,161.9107725788901,727.2861806311208,0.3326766665858833
215,162.80555555555554,727.7371794871794,0.29620960224461335
216,163.80669546436286,727.5086393088553,0.2940225494799017
217,165.27753303964758,727.3579295154185,0.2675804382362241
218,165.97309417040358,727.6636771300448,0.2522081269939982
219,166.85437997724688,727.9419795221843,0.22762134972586134
220,168.1186839012926,727.6733254994125,0.21786898228670692
221,169.15928143712574,727.0874251497006,0.19600734715179394
222,170.21471652593488,726.875753920386,0.19365341742359124
223,170.95295536791315,727.8986731001206,0.17032022328921398
224,172.12340966921118,726.7862595419847,0.15975504781495448
225,173.06393861892582,727.0396419437341,0.1409791643887167
226,174.4655172413793,726.1657824933687,0.12917032068205314
227,175.13098591549294,726.4084507042254,0.10602068157178941
228,176.3390557939914,724.68669527897,0.11424261136646197
229,177.04426002766252,725.4744121715077,0.11006139870045656
230,178.08602150537635,725.258064516129,0.09830979261764153
231,179.0693215339233,724.7315634218289,0.0785487016657506
232,179.6359223300971,723.9870550161812,0.06857677535359916
233,180.70098039215685,723.0555555555555,0.06711320007944994
234,181.6272401433692,723.431899641577,0.043965174980107616
235,182.20804195804197,722.7657342657343,0.035588923398368714
236,182.88323917137478,722.5668549905838,0.011649049654853713
237,184.06640625,722.130859375,0.03417156285088065
238,184.81335952848724,721.5108055009823,0.007118564725886227
239,185.20328542094455,721.0759753593429,0.005192468219245084
240,186.3154761904762,720.4781746031746,-0.009007108504127656
241,186.929203539823,720.1637168141593,-0.02987585257469699
242,187.69417475728156,719.254854368932,-0.029179440394594008
243,188.67396593673965,719.30900243309,-0.032039559636385155
244,189.06569343065695,718.3357664233577,-0.04397440069310013
245,189.84438040345822,718.2276657060519,-0.05190760831237707
246,190.6793002915452,717.3935860058309,-0.0713548168586756
247,191.36578947368423,717.8815789473684,-0.09885666265403023
248,192.0326086956522,717.5434782608695,-0.0927260174531262
249,192.66391184573,717.1928374655647,-0.1103656217571562
250,193.26888217522657,717.1087613293051,-0.10925710952149517
251,193.97790055248618,716.2596685082873,-0.070013161463353
252,194.26708074534162,715.4006211180124,-0.10805113830377368
253,195.05825242718447,715.5533980582525,-0.09500259068130577
254,195.83093525179856,714.7374100719425,-0.11206295044108905
255,196.51452282157675,714.3609958506224,-0.15857345491269154
256,197.2442748091603,714.0114503816794,-0.17292776870354418
257,197.93189964157705,714.0931899641577,-0.14840232367009562
258,198.51012145748987,712.834008097166,-0.11585300156517539
259,198.74898785425103,711.9595141700405,-0.19539523098585035
260,199.42924528301887,712.25,-0.192248398993377
261,199.86315789473684,710.9105263157894,-0.261294719190762
262,200.47736625514403,710.5432098765432,-0.23781211563428947
263,200.38524590163934,709.0532786885246,-0.33784875744757215
264,201.05726872246697,708.3127753303964,-0.29149619474339566
265,201.1078838174274,707.0622406639004,-0.3089244089885088
266,201.86328125,706.31640625,-0.33519134148525337
267,201.79007633587787,705.8282442748092,-0.30887575578232773
268,202.5326086956522,705.2753623188406,-0.32430087557414883
269,202.87551867219918,703.9253112033196,-0.3413326708015321
270,203.25328947368422,703.6480263157895,-0.35636081247837487
271,203.6360544217687,702.9047619047619,-0.3464438582797857
272,203.81305637982194,702.326409495549,-0.35769018767292915
273,204.7484076433121,701.9076433121019,-0.35640172463484604
274,205.05219780219778,701.6483516483516,-0.35652695032026277
275,205.18037135278513,700.2785145888595,-0.38499975063995756
276,205.68932038834953,700.1771844660194,-0.3574626149544533
277,206.66509433962264,699.9174528301887,-0.3924715315334506
278,206.49065420560748,698.7383177570093,-0.37809190483993
279,206.90322580645162,697.4009216589861,-0.4016410552857866
280,207.25681818181818,697.4113636363636,-0.39698714836910126
281,207.47945205479454,696.5593607305937,-0.40494623062034785
282,207.8510158013544,695.7674943566592,-0.4101142574443617
283,207.7358121330724,695.187866927593,-0.40876802627745795
284,208.7750472589792,695.8185255198488,-0.4188822812441435
285,208.6,694.1854545454546,-0.4336332093721481
286,209.08856088560884,694.1236162361623,-0.4222006460630118
287,209.2885662431942,693.3956442831216,-0.43964205939467604
288,209.49488054607508,693.2286689419795,-0.44987909010351684
289,209.6368330464716,692.4939759036145,-0.4476274414607176
290,210.32173913043476,692.28,-0.4602682422996335
291,210.36115569823437,691.8523274478331,-0.46148444120844756
292,211.08760330578514,692.3305785123966,-0.4757635444985253
293,211.35455861070912,691.2749638205499,-0.46689423994983564
294,211.98956780923993,692.3025335320417,-0.491935180970715
295,212.26951399116348,691.4889543446244,-0.5019133392073413
296,212.3544117647059,691.3264705882353,-0.5110759873424134
297,213.393351800554,691.5069252077562,-0.5396943580327839
298,212.89795918367346,690.804664723032,-0.5274667181855891
299,213.0691114245416,690.5204513399153,-0.5434793184999438
300,213.9559659090909,691.015625,-0.5546439027248842
301,213.5857321652065,690.7421777221527,-0.5812256790738342
302,214.8405994550409,691.3188010899182,-0.5734983176596992
303,215.54093959731546,691.4644295302013,-0.5864208740334855
304,215.7429718875502,691.4123159303882,-0.5944324630173135
305,215.6757457846952,690.9260700389106,-0.5995382787074535
306,216.72772898368885,692.168130489335,-0.6011162332899496
307,216.81349206349205,691.3452380952381,-0.6310098236136654
308,217.251269035533,691.6269035532995,-0.6439487369300417
309,217.70247933884298,692.3152302243211,-0.6292531567702221
310,218.5485933503836,692.4156010230179,-0.6719585156990662
311,218.8045112781955,692.9010025062656,-0.673470451465025
312,219.22622107969153,692.5899742930592,-0.6881596999285464
313,219.45854271356785,692.5829145728643,-0.7248829642233515
314,220.9255319148936,694.4598108747045,-0.7056114261441712
315,220.84121212121212,693.6145454545455,-0.7382908239215938
316,220.5,693.3039215686274,-0.7810137429272613
317,221.87290167865706,693.9844124700239,-0.7481659016871771
318,222.1317365269461,695.0802395209581,-0.7759647084511812
319,222.6539408866995,694.6391625615763,-0.8268787353638576
320,223.24659231722427,695.179677819083,-0.8630535264832513
321,223.55691554467563,695.3843329253366,-0.8839058576825047
322,224.4022277227723,696.2339108910891,-0.8950363060336445
323,224.83890954151178,696.3828996282527,-0.9319084998080372
324,225.691738594328,697.075215782984,-0.961622330624324
325,226.52453271028037,697.857476635514,-1.0263089890436758
326,226.4776839565742,697.7840772014475,-1.0305860763669388
327,227.3928128872367,698.6964064436183,-1.0639530347645365
328,227.31072749691737,698.7521578298397,-1.1207081711655935
329,228.25563909774436,699.5889724310777,-1.1782223804222534
330,228.85913705583755,700.0558375634517,-1.2444732935678127
331,229.28536880290204,700.0217654171705,-1.200937191417408
332,229.9716748768473,701.0418719211823,-1.3590812874489224
333,230.39489671931955,701.9356014580802,-1.428866635484785
334,230.67027677496992,702.5619735258724,-1.5575786762114872
335,232.03286978508217,703.1845764854614,-1.5688365598554228
336,232.39097744360902,703.5426065162908,1.4355450465076103
337,233.30517023959646,703.9457755359394,1.4199790355033803
338,233.84898929845423,705.4684898929845,1.2767501895721942
339,234.29871794871795,705.7051282051282,1.215105679712114
340,234.86557788944725,706.2110552763819,1.1078883911873751
341,235.72269938650305,707.5128834355828,1.01156223116092
342,237.10691003911342,707.232073011734,0.9609942133683426
343,237.13735558408217,707.9486521181001,0.9199415515476148
344,238.26884422110552,708.4045226130653,0.8648567451606647
345,238.46943765281173,709.1919315403422,0.8209275850259339
346,239.43500643500641,709.6769626769627,0.7236846692084344
347,240.32788944723617,710.4497487437186,0.6968377463994792
348,240.86189889025894,710.9778051787916,0.6578089116436083
349,242.2,711.1012499999999,0.6085977548934022
350,242.9679012345679,712.0604938271605,0.6009340095938269
351,243.187270501836,712.5079559363525,0.5589907138882945
352,243.96470588235294,713.0562091503268,0.5113151309095806
353,244.49496221662469,714.051637279597,0.4950386263747919
354,245.4581151832461,714.0955497382199,0.4671718984563541
355,245.82509505703422,713.6375158428391,0.4225898234745275
356,247.2904458598726,714.884076433121,0.43536383209780233
357,247.38564476885645,714.1520681265207,0.370298005994038
358,248.2860962566845,715.1978609625669,0.3715064798248198
359,248.44900497512438,715.3619402985074,0.39364771640302615
360,249.77204884667572,715.7693351424695,0.338251084377647
361,250.5970548862115,716.0923694779117,0.3108246918774872
362,251.6263586956522,716.491847826087,0.2888590045164195
363,252.0977011494253,715.8922413793103,0.29355587246046577
364,252.38482758620688,717.071724137931,0.2831869388998087
365,253.47445255474452,716.7226277372263,0.25943557611866475
366,253.841642228739,717.4721407624634,0.24281002746125757
367,254.6606334841629,717.289592760181,0.2464383002566662
368,255.72818311874107,717.4663805436337,0.23624723614218754
369,255.7046783625731,718.8333333333334,0.24746999168481643
370,256.7210031347962,718.3683385579938,0.21317629493332016
371,258.1007751937984,716.3906976744186,0.22875343480921712
372,258.01244167962676,717.8118195956454,0.18271218479561602
373,258.5569422776911,718.2574102964119,0.18041526231645044
374,259.28235294117644,717.7008403361344,0.18059069850120518
375,259.8799342105263,716.6891447368421,0.17555177447421114
376,260.4678260869565,717.0069565217391,0.1617153655124057
377,261.84406779661015,716.6474576271187,0.1970191615649755
378,261.3523131672598,717.185053380783,0.1537833285997138
379,262.4066317626527,717.5828970331588,0.15180336958266186
380,262.5736301369863,718.3493150684932,0.15847279035601744
381,263.6528301886792,717.4433962264151,0.14428342958363963
382,263.80037313432837,717.8638059701493,0.12933541726829006
383,264.7659574468085,717.4148936170213,0.13611280841986112
384,264.87150837988827,718.342644320298,0.1287283537156539
385,265.45454545454544,718.8548951048951,0.13753374333085044
386,266.13678373382623,718.1293900184843,0.1150274996965761
387,266.22727272727275,718.7181818181818,0.1208535985101398
388,267.3916967509025,717.1335740072202,0.10728332059022046
389,267.624778761062,717.375221238938,0.11867004523508348
390,268.38120567375887,716.886524822695,0.12580921243246854
391,268.83089770354906,717.0041753653445,0.10654473265557854
392,269.2617328519856,717.3628158844765,0.11970628160794684
393,269.7057793345009,718.3625218914185,0.09052568700981657
394,270.0763636363636,717.2018181818182,0.1052292626193113
395,270.184347826087,716.7739130434783,0.09274463335503882
396,271.28076923076924,716.4076923076923,0.10599441325106353
397,270.8571428571429,716.6821428571428,0.11729477477498731
398,272.31021897810217,716.2810218978102,0.103297125217726
399,272.6531365313653,715.3173431734317,0.0908641285389229
400,272.92660550458714,716.0220183486239,0.09646925226284625
401,273.4597249508841,715.4322200392927,0.0865489117431933
402,273.7325800376648,715.3182674199624,0.08181889179695953
403,273.7434456928839,714.4850187265918,0.08971601327308665
404,275.1686991869919,714.1808943089432,0.09796946503566728
405,275.37916666666666,713.6166666666667,0.11502160190766078
406,276.1795366795367,713.3474903474903,0.05824799267071554
407,276.35959595959594,714.3414141414141,0.08469570314455405
408,276.89662027833003,713.5188866799205,0.131007842717421
409,276.9217391304348,712.7630434782609,0.10277626706909315
