FrameNo,Row,Column,Angle
50,22.39030612244898,665.2551020408164,-1.4812403842285715
51,24.113861386138613,664.7326732673267,-1.4943611328955155
52,26.023972602739725,664.7380136986301,-1.5002901235877502
53,27.76429809358752,664.736568457539,-1.4948670705079956
54,29.717757009345796,664.6803738317757,-1.4991441515851347
55,31.245714285714286,664.5314285714286,-1.5035674941822998
56,33.41699604743083,664.598814229249,-1.5045179992977593
57,35.83122362869198,664.5147679324895,-1.5096909074091003
58,37.63010752688172,664.5032258064516,-1.5093934494993413
59,39.59593679458239,664.4221218961625,-1.5075283858116346
60,41.921241050119335,664.3603818615752,-1.5127401906745517
61,43.675949367088606,664.2075949367088,-1.5189023973177487
62,45.70967741935484,664.25,-1.5117134889087336
63,47.61271676300578,664.1965317919075,-1.5107906089060372
64,49.5141065830721,664.1379310344828,-1.517500451654333
65,54.65732087227414,663.9221183800623,-1.5455833824855447
66,53.69204152249135,664.1453287197232,-1.5046968615308003
67,55.72862453531599,664.3122676579926,-1.5278837630174609
68,58.0919540229885,664.0613026819923,-1.5180628364136608
69,58.97435897435897,663.9157509157509,-1.5214010240040252
70,60.1522491349481,663.7404844290658,-1.5270764523065485
71,62.048231511254016,663.6688102893891,-1.5312917107933708
72,63.47720364741642,663.6990881458967,-1.5271876946447691
73,66.03166226912928,663.6912928759895,-1.5305348039622413
74,66.55913978494624,663.6236559139785,-1.5412583298173244
75,68.59846547314578,663.3785166240409,-1.531622537795786
76,70.43571428571428,663.4214285714286,-1.5494186674335144
77,71.84389140271493,663.5,-1.550613413725576
78,73.72489082969432,663.3842794759826,-1.5497012623310042
79,75.95061728395062,663.3786008230453,-1.545159410611477
80,77.60721442885772,663.4348697394789,-1.5592622144864299
81,79.67716535433071,663.3602362204724,-1.5628198729436702
82,81.30518234165068,663.2917466410748,-1.5592052857492091
83,83.36630036630036,663.3296703296703,-1.562607988774866
84,84.91394148020655,663.3304647160069,-1.5487358363594101
85,86.93050847457627,663.5254237288136,-1.5593722123753564
86,88.91399662731872,663.5008431703204,-1.5681531186887077
87,90.6644844517185,663.7135842880524,1.5656651932095933
88,92.65640194489465,663.6353322528363,1.5675171352807824
89,94.51053484602917,663.5980551053485,1.558913614929631
90,96.44354838709677,663.7225806451613,1.5589122477909385
91,98.02218700475436,663.6656101426307,1.5581291096090861
92,100.12888198757764,663.9332298136646,1.5541901214841187
93,102.08721804511278,664.0451127819549,1.5662931703449166
94,104.56592592592592,664.1051851851852,1.5434737536278607
95,105.81900452488688,664.1357466063348,1.5413430194805224
96,107.95,664.1363636363636,1.5385253764096634
97,109.75260804769002,664.2399403874814,1.5402089651651134
98,111.70992366412214,664.2106870229007,1.530694365984289
99,113.49260355029585,664.4615384615385,1.519597289469381
100,115.6033434650456,664.3860182370821,1.5287161919501964
101,117.48148148148148,664.5333333333333,1.5116194734234987
102,119.22152886115444,664.6755070202807,1.5148126838208162
103,121.38897168405366,664.5931445603577,1.4911612570291113
104,123.00307692307692,664.8461538461538,1.5001413552086842
105,124.94539781591264,664.8861154446178,1.4940963405715235
106,126.86656200941916,665.0863422291993,1.4977098648575489
107,129.2531055900621,664.8229813664597,1.4608276383202095
108,130.5272435897436,665.3333333333334,1.4819680309313152
109,132.3469055374593,665.2850162866449,1.4839883810883123
110,134.57762938230383,665.3956594323873,1.4781740328017474
111,136.38527397260276,665.5462328767123,1.4777618092282934
112,138.10273972602738,665.5890410958904,1.4820329525109213
113,140.22982456140352,665.7298245614035,1.476517548738536
114,142.34452296819788,665.8374558303886,1.4732611678139114
115,144.5181818181818,666.0072727272727,1.4731952052057602
116,145.91926605504585,666.2458715596331,1.4611161041873815
117,148.16603773584905,666.045283018868,1.432405102583783
118,149.97058823529412,666.2627450980392,1.4512796856102117
119,152.11530815109344,666.258449304175,1.4551428527467472
120,154.89473684210526,666.1032388663967,1.4249478762147192
121,155.83695652173913,666.5434782608695,1.4431066387325084
122,158.11233480176213,666.4647577092511,1.4397318395353595
123,159.8237986270023,666.5926773455377,1.4305241042934163
124,161.82311320754718,666.6438679245283,1.4285153185073416
125,162.88,666.7505882352941,1.4396001806123149
126,165.005076142132,666.9492385786803,1.4314170583288506
127,166.90816326530614,666.905612244898,1.4302354880169788
128,169.272,666.8853333333334,1.4163754879685124
129,170.78729281767954,667.121546961326,1.4153865979123261
130,173.54597701149424,667.0316091954023,1.4056486947320104
131,175.37758112094394,667.0648967551622,1.408212055422817
132,177.392749244713,667.0966767371601,1.4089297046310574
133,178.74375,667.221875,1.3976238533896883
134,181.38666666666666,667.2433333333333,1.4013045085726274
135,183.46180555555554,667.1215277777778,1.3921487414312714
136,185.3971119133574,667.057761732852,1.380717591980336
137,186.99632352941177,667.2316176470588,1.3880645527893125
138,189.62737642585552,667.0380228136883,1.3773002238638063
139,191.5,667.0038759689922,1.376394403818647
140,193.21212121212122,667.0113636363636,1.3786455590430942
141,195.0,667.1375464684015,1.378334413418861
142,196.69741697416976,667.1439114391144,1.3783569339812638
143,198.9616724738676,667.0452961672474,1.3742641857049063
144,200.07744107744108,667.3333333333334,1.3713063604146931
145,202.19322033898305,667.2813559322034,1.3718167069135792
146,203.83018867924528,667.2232704402516,1.3670478065588556
147,205.74074074074076,667.3333333333334,1.3754694037462718
148,208.05309734513276,667.2300884955753,1.361958396634525
149,210.20845921450152,667.1752265861028,1.3663951298425603
150,212.05014749262537,667.165191740413,1.3633239939052375
151,213.41803278688525,667.3688524590164,1.3505652022997534
152,215.7162162162162,667.1432432432432,1.3568101926029754
153,218.7025641025641,666.7820512820513,1.319393494147242
154,219.13684210526316,667.2842105263157,1.3523953703666478
155,221.02072538860102,667.259067357513,1.3414250933976015
156,223.34605597964378,667.1348600508906,1.3356351277952034
157,225.06982543640896,667.3591022443891,1.3579823301883351
158,226.8997555012225,666.9413202933986,1.3420186040827904
159,228.4635922330097,667.2111650485436,1.3404114715917148
160,230.6474820143885,667.0287769784172,1.3380120774770172
161,232.93364928909952,667.0663507109005,1.3305439348115689
162,234.5897435897436,667.1421911421911,1.3261342797434412
163,236.5104895104895,667.039627039627,1.3279787469553375
164,238.58276643990928,666.9433106575964,1.332577208171688
165,240.85553047404062,666.8465011286681,1.3237235357302437
166,242.07882882882882,666.8806306306307,1.319384314119893
167,244.41150442477874,666.8030973451328,1.321971044202597
168,245.83964365256125,666.8975501113586,1.3127959501893895
169,248.0221729490022,666.729490022173,1.315903405058436
170,250.27213822894169,666.5529157667387,1.308374839851312
171,251.90831556503198,666.4904051172708,1.315598666930586
172,254.08405172413794,666.5237068965517,1.3110820567747734
173,255.8253638253638,666.4573804573804,1.2975176346002666
174,258.0380761523046,666.0521042084168,1.2943937512235224
175,259.6616379310345,666.2693965517242,1.298512906220583
176,261.71398747390396,666.3089770354906,1.2962355948595865
177,263.15368852459017,666.4036885245902,1.2837579504764174
178,265.18979591836734,666.2244897959183,1.2908048683615574
179,267.5850622406639,665.798755186722,1.2850379859703807
180,268.8539094650206,666.1358024691358,1.2897120913011713
181,271.7004048582996,665.4412955465586,1.2550052371378868
182,273.36008230452677,665.7263374485597,1.2885214043913504
183,275.2390852390852,665.5114345114346,1.2937745921260435
184,277.6715176715177,665.4033264033264,1.2879671297184538
185,279.0989898989899,665.149494949495,1.279283807059256
186,280.9709543568465,665.1908713692947,1.2874843709431383
187,283.012474012474,665.0623700623701,1.268541742645302
188,285.38923395445136,664.9296066252588,1.271096749633941
189,286.88589211618256,664.9377593360996,1.267517889876729
190,288.97021276595746,664.6787234042554,1.2704315569439484
191,290.6610878661088,664.7468619246862,1.267758338907211
192,292.91379310344826,664.3814655172414,1.2728835469802446
193,295.6497890295359,664.0569620253165,1.2647378735174477
194,297.09433962264154,664.398322851153,1.2835545170649898
195,299.2219827586207,663.8814655172414,1.2585725074430163
196,300.835886214442,663.8687089715536,1.2609570723571932
197,302.6740088105727,663.6740088105727,1.260170696348608
198,304.6193548387097,663.4881720430108,1.2586412814567391
199,306.63370786516856,663.4337078651686,1.2594184111228677
200,308.3847874720358,663.3892617449665,1.2522313709553212
201,310.46938775510205,663.0997732426304,1.2508832760880544
202,312.3537414965987,662.9092970521542,1.242437573986488
203,314.64102564102564,662.6130536130536,1.2476016568249295
204,316.4095238095238,662.6023809523809,1.2495774242909006
205,318.51536643026003,662.2978723404256,1.2435051727002406
206,320.5170731707317,662.1170731707317,1.2457197694065367
207,322.6421568627451,661.8553921568628,1.2418147212115453
208,324.53652392947106,661.7380352644836,1.239076340922147
209,326.13861386138615,661.6633663366337,1.2419886832757892
210,328.6708229426434,661.0922693266833,1.2259043248405543
211,330.4702842377261,661.1472868217054,1.2387919090159103
212,332.5783783783784,660.8189189189189,1.2293457828942447
213,334.0913978494624,660.8225806451613,1.2318773014176132
214,336.3314917127072,660.4060773480663,1.2204415646119902
215,338.40056022408965,660.2997198879552,1.2335633228659713
216,340.62,659.9657142857143,1.2216373017727065
217,342.38662790697674,659.7151162790698,1.2206949589976235
218,344.82544378698225,659.4319526627219,1.225151834460785
219,346.1607142857143,659.4285714285714,1.2233105434975284
220,348.4556962025316,659.0791139240506,1.215457883691085
221,350.7147435897436,658.6217948717949,1.2121581279839582
222,352.5048231511254,658.4855305466237,1.2169175331474467
223,354.37966101694917,658.2101694915254,1.21174909350051
224,356.83505154639175,657.8865979381443,1.211717953677827
225,358.8144329896907,657.5979381443299,1.2041983696479344
226,360.910394265233,657.2974910394265,1.2079685410552043
227,363.0427046263345,656.9822064056939,1.2055240667432026
228,364.1943462897526,657.1448763250884,1.20562006489619
229,366.53076923076924,656.7884615384615,1.20535545788846
230,368.41580756013747,656.5910652920962,1.1957732351422286
231,370.2387543252595,656.4498269896194,1.205969760557498
232,371.90816326530614,656.3163265306123,1.2027557702311946
233,374.27702702702703,655.8648648648649,1.2034844331758945
234,376.32389937106916,655.6163522012579,1.202137439811822
235,377.468085106383,655.6869300911854,1.1991842264637902
236,379.5091463414634,655.344512195122,1.20189982954849
237,381.7703488372093,655.0610465116279,1.1970464955204692
238,383.8179190751445,654.7716763005781,1.1992978188534635
239,385.4685714285714,654.5771428571429,1.2017381868403856
240,387.5961538461538,654.1730769230769,1.1999754544244938
241,389.2421052631579,654.1763157894737,1.1917637011512818
242,391.1921052631579,653.8394736842106,1.1994966224617662
243,392.75456919060053,653.5770234986945,1.1924749566195167
244,395.54060913705587,653.010152284264,1.1957899710945856
245,397.29802955665025,652.9137931034483,1.2006982957273784
246,399.09024390243906,652.6024390243903,1.1889967743801266
247,400.72027972027973,652.4079254079254,1.1931531430947189
248,402.86729857819904,652.1350710900474,1.1898628461158263
249,404.9373549883991,651.8236658932715,1.1803862407543122
250,406.40232558139536,651.6534883720931,1.1905532866127482
251,409.3076923076923,650.7264957264957,1.1533484160123695
252,410.5878378378378,650.9797297297297,1.1824768012981248
253,412.33186813186813,650.8153846153846,1.1810582940293506
254,414.6296296296296,650.3660130718954,1.1919864917348595
255,416.55128205128204,650.1538461538462,1.1790429641782023
256,418.32059447983016,649.8004246284501,1.1709709017521137
257,420.30625,649.4,1.178519503177738
258,422.19957983193274,649.2457983193277,1.1718532120319447
259,424.1804670912951,648.9978768577495,1.1769975495147202
260,426.1115537848606,648.601593625498,1.168016375573194
261,428.07900207900207,648.4449064449065,1.1727174372561218
262,430.46640316205537,647.6916996047431,1.1395940559716464
263,432.2967479674797,647.7073170731708,1.167602213653055
264,434.13663366336635,647.4316831683168,1.1705091858417507
265,435.8201581027668,647.2094861660079,1.1719186622325413
266,437.9265873015873,646.9980158730159,1.1733649890506879
267,440.062,646.534,1.1628985285224371
268,442.001968503937,646.2972440944882,1.1583172954936811
269,443.7431906614786,646.1167315175097,1.167317600898098
270,446.1364522417154,645.5341130604288,1.1636398501583927
271,447.69921875,645.46875,1.1615274289514137
272,449.98839458413926,645.0870406189555,1.1642202958232568
273,452.06985294117646,644.9705882352941,1.1639935468637512
274,454.1015325670498,644.4099616858238,1.1592929657381301
275,455.8201160541586,644.1779497098646,1.158920186018679
276,458.0264650283554,643.7448015122874,1.1505580123373762
277,459.8251879699248,643.6071428571429,1.1536255167488023
278,461.6106870229008,643.2748091603054,1.15567201246507
279,463.96963946869073,642.8823529411765,1.149095995414605
280,465.9024390243902,642.6397748592871,1.1432873350855755
281,467.5436363636364,642.1454545454545,1.1373470298851256
282,469.8474576271186,641.9322033898305,1.1458594357101684
283,471.5897920604915,641.7258979206049,1.1381782244125793
284,473.5613382899628,641.539033457249,1.1425544716457685
285,475.82485875706215,640.9133709981168,1.1392211076524705
286,477.8125,640.7083333333334,1.1395974031847065
287,479.81716417910445,640.3843283582089,1.1356947122285732
288,481.7142857142857,640.0545112781955,1.1314885448674847
289,483.9943396226415,639.622641509434,1.1315196210617404
290,485.88786764705884,639.4283088235294,1.1295376662329684
291,488.18098720292505,639.1846435100548,1.1606872012237277
292,489.88846880907374,638.7240075614367,1.1385169106323856
293,491.64990689013035,638.6163873370577,1.1387208172376233
294,494.0915887850467,637.9495327102804,1.1177678632946726
295,496.03977272727275,637.6344696969697,1.1216050351155573
296,497.8574108818011,637.2251407129456,1.1121273625413226
297,499.6981132075472,637.2547169811321,1.116568416097363
298,501.64473684210526,636.922932330827,1.1304173966266917
299,503.7337164750958,636.5325670498084,1.1184610642585928
300,505.4096834264432,636.4953445065177,1.09689677611801
301,507.85604606525914,635.831094049904,1.1196176401271665
302,510.07924528301885,635.3264150943396,1.113916856838509
303,511.6208251473478,635.2455795677799,1.1149301388411634
304,514.0907335907336,634.7413127413128,1.1157920020958254
305,515.9280155642024,634.4961089494163,1.1103457175516251
306,517.3295668549906,634.8512241054614,1.077954263493043
307,520.1702544031311,633.5772994129159,1.1098280159571767
308,521.6361829025846,633.6461232604374,1.1114734977942693
309,523.8127490039841,633.183266932271,1.107277002803921
310,525.9110671936759,632.6897233201581,1.1060171418665967
311,527.6552419354839,632.5745967741935,1.111275242794427
312,530.0704225352113,632.1348088531187,1.1066951468618302
313,531.7992047713717,631.817097415507,1.1103447384274112
314,534.0142857142857,631.3857142857142,1.1055163549616167
315,536.4053497942386,630.7510288065844,1.1085936542356012
316,538.1434511434511,630.5779625779626,1.1084422957593314
317,540.0512295081967,630.3688524590164,1.098821323512126
318,542.2335456475583,629.859872611465,1.1087532804166602
319,544.4025423728814,629.4851694915254,1.1057720985374966
320,546.4719334719334,629.2972972972973,1.1163523352721856
321,548.8067226890756,628.4957983193277,1.1046071847150605
322,550.1826086956522,628.4478260869565,1.1010654587868067
323,552.6943231441048,627.7838427947598,1.100354876793345
324,554.4183006535948,627.7472766884532,1.1060849413236402
325,556.8072805139186,627.2226980728051,1.1097265246162658
326,558.6585903083701,626.8017621145375,1.1055892452804736
327,560.5091324200913,626.4520547945206,1.1074661223236495
328,562.75,626.009009009009,1.103568230861216
329,564.8410138248848,625.4539170506912,1.0974757313653514
330,566.7659574468086,625.144208037825,1.1074487089451244
331,568.9837209302326,624.7,1.099258712925878
332,570.7718446601941,624.3640776699029,1.0998837531081633
333,572.8691358024691,624.0098765432099,1.105033474889355
334,574.92700729927,623.4549878345499,1.1044649023432578
335,576.7205882352941,623.2769607843137,1.100643031541432
336,579.3452685421995,622.5728900255755,1.0975136928932565
337,580.5843828715365,622.5491183879093,1.0895826315314465
338,583.7586206896551,621.2192118226601,1.0919974326999136
339,585.4116094986807,621.1952506596306,1.1006545088407815
340,587.5230352303523,620.8563685636857,1.1031550807298782
341,589.8429752066115,620.1487603305785,1.0998489063202934
342,591.3019943019943,620.0512820512821,1.101170828941607
343,593.2877492877493,619.6182336182336,1.1115018632408726
344,596.023598820059,618.7581120943953,1.1075373940352131
345,597.874269005848,618.3888888888889,1.1089270452572122
346,600.2066869300912,617.7872340425532,1.1043913559036052
347,602.384126984127,617.2857142857143,1.116323369035655
348,603.8424437299035,617.0353697749197,1.1142483588744716
349,606.0498338870432,616.5847176079734,1.1113008330084801
350,608.6116838487973,615.872852233677,1.1093685025090776
351,610.1201413427561,615.5017667844523,1.1104543501479462
352,612.5157894736842,614.8701754385964,1.1150961241209736
353,614.9131944444445,614.2986111111111,1.1169070791279578
354,616.787072243346,613.7908745247148,1.119289835495693
355,618.8129496402878,613.2122302158273,1.1138549813011371
356,620.9389312977099,612.6832061068702,1.1242194103712568
357,622.7183098591549,612.1302816901408,1.11467133540469
358,624.8843283582089,611.6828358208955,1.126214821316405
359,626.2565055762082,611.4163568773234,1.1244517623128483
360,628.5483870967741,610.8458781362007,1.129123972888165
361,629.9929824561403,610.5649122807017,1.135221518018448
362,631.911971830986,610.193661971831,1.1310946956928531
363,634.0884353741496,609.5238095238095,1.1316621667594775
364,635.5496688741722,609.3509933774834,1.1426780858840808
365,637.9967532467532,608.6298701298701,1.1340435842475716
366,639.3151125401929,608.4533762057878,1.1346313901901048
367,641.7227414330218,607.7196261682243,1.1423132489677865
368,643.4789156626506,607.3493975903615,1.142727174780807
369,645.55,606.6705882352941,1.153748044946776
370,647.2881844380404,606.299711815562,1.1616952343559768
371,648.681690140845,606.0507042253521,1.1539306380457441
372,650.9248554913295,605.349710982659,1.169588920396952
373,653.2148760330579,604.66391184573,1.1622693751929178
374,655.1024258760108,604.1563342318059,1.174951235714827
375,656.9168831168831,603.7220779220779,1.1662609858650896
376,658.5424164524421,603.3676092544987,1.180180158480006
377,660.8241206030151,602.6482412060302,1.178679481056635
378,662.893300248139,602.0744416873449,1.1815969917386635
379,664.7537688442211,601.4773869346734,1.1886336902975905
380,666.6129807692307,600.9711538461538,1.1854153153884455
381,668.6950354609929,600.274231678487,1.1915484950838597
382,670.8601398601398,599.6783216783217,1.196777924472075
383,672.8510158013544,599.0564334085778,1.1941418195449474
384,674.6398210290828,598.4653243847874,1.205160642494469
385,676.4811529933481,598.0376940133037,1.2104430269811108
386,678.8577680525163,597.2450765864332,1.2108202162950295
387,680.3701298701299,596.8441558441558,1.2182052735674074
388,682.6680851063829,596.0510638297873,1.2191173876528436
389,684.9360824742269,595.3958762886598,1.2103906171416576
390,686.4826883910387,594.8900203665987,1.2291272465532674
391,688.4848484848485,594.3818181818182,1.222741795793813
