FrameNo,Row,Column,Angle
46,6.351648351648351,769.5604395604396,-0.6097383322117527
47,7.541666666666667,769.9833333333333,-0.5684589302881324
48,8.968503937007874,770.9685039370079,-0.47407024149219074
49,10.669117647058824,771.6176470588235,-0.3786797423754302
50,11.777777777777779,772.3921568627451,-0.11252895991348216
51,13.141104294478527,772.8957055214723,-0.06061269142608694
52,14.76923076923077,773.6745562130177,0.07669302082419814
53,15.880681818181818,774.2556818181818,0.10994115602767478
54,17.196891191709845,774.7098445595855,0.12723187944554543
55,18.626262626262626,775.4494949494949,0.1468663015756006
56,19.90686274509804,775.7892156862745,0.16122640896943644
57,21.083333333333332,776.4212962962963,0.1702168218789903
58,22.278761061946902,777.1150442477876,0.17983688168743067
59,23.593073593073594,777.6753246753246,0.20654537012170518
60,24.861344537815125,778.0126050420168,0.20619938448397648
61,26.141025641025642,778.6367521367522,0.21822445499987905
62,27.491525423728813,778.9110169491526,0.20280838665175213
63,28.60408163265306,779.7102040816327,0.22032352518951406
64,29.840637450199203,780.3864541832669,0.23409285691373913
65,31.072289156626507,780.574297188755,0.22785650373014846
66,32.196850393700785,780.9173228346457,0.2329982116896905
67,33.30278884462152,781.8047808764941,0.24152732496109589
68,34.547325102880656,782.0987654320987,0.2552990565542353
69,35.58467741935484,782.4798387096774,0.2559097198192203
70,36.93388429752066,782.2933884297521,0.2590552610537527
71,38.13389121338912,782.3054393305439,0.26456235630196767
72,39.222707423580786,783.0131004366813,0.2672736667656918
73,40.379464285714285,783.1517857142857,0.2761767794541853
74,41.610619469026545,783.1681415929204,0.28029086609418796
75,42.714285714285715,783.36866359447,0.2812201234609814
76,43.932367149758456,783.2028985507246,0.29210924918353226
77,45.16161616161616,783.1262626262626,0.301420499406835
78,46.262569832402235,783.4972067039106,0.30429893212008635
79,47.25966850828729,783.6022099447514,0.3144360645827178
80,48.146067415730336,784.6011235955057,0.3253680208470634
81,49.447513812154696,783.8508287292818,0.3214726266849335
82,50.27272727272727,784.6121212121212,0.3367212290706965
83,51.032679738562095,785.5359477124183,0.3496599309742681
84,51.98726114649681,785.5796178343949,0.36262656587197767
85,52.84415584415584,785.7792207792207,0.36457916927191
86,53.76774193548387,785.8387096774194,0.37404112007853896
87,54.432432432432435,786.5743243243244,0.3900043007252002
88,55.27564102564103,787.0,0.40431905818735164
89,56.164556962025316,786.7215189873418,0.41869188803609625
90,56.83625730994152,787.1228070175439,0.43890660955332683
91,58.0,786.6607142857143,0.4536649803071253
92,59.0,786.2487046632125,0.4781993394884216
93,59.55263157894737,786.9052631578948,0.49512667746451494
94,60.83980582524272,785.8300970873786,0.5202971068910641
95,61.68867924528302,785.6320754716982,0.5470994560561644
96,62.76548672566372,785.1283185840708,0.5681301120013252
97,63.84615384615385,784.6153846153846,0.5990289650004018
98,64.92771084337349,783.863453815261,0.6225170059235319
99,66.01171875,783.25,0.6634355433305087
100,66.86259541984732,782.7977099236641,0.6984442907767439
101,67.6962962962963,782.3592592592593,0.7450156568805039
102,68.96113074204948,781.4770318021201,0.7795053506867579
103,69.88771929824561,780.6771929824562,0.8332796999836571
104,70.95348837209302,780.063122923588,0.8826165028224938
105,71.99352750809061,779.3074433656958,0.9392365327707215
106,72.95356037151703,778.5758513931888,0.997383968873328
107,74.0398773006135,777.8865030674847,1.0672648072301005
108,74.94864048338368,777.0271903323263,1.1854090808191566
109,75.932944606414,776.3002915451896,1.2555819380775177
110,77.0695652173913,775.5884057971015,1.4016667112669328
111,78.02011494252874,774.7068965517242,1.516992345651038
112,79.21971830985916,773.8028169014085,-1.4781518198601489
113,80.025069637883,773.0027855153203,-1.3156357004983623
114,81.31955922865014,772.2148760330579,-1.1987799251347162
115,82.1923076923077,771.3928571428571,-1.0826465855486094
116,83.14754098360656,770.5573770491803,-0.990130848859729
117,84.30517711171662,769.9618528610354,-0.9335829980830191
118,85.35185185185185,769.1878306878307,-0.8639861646346767
119,86.63561643835617,768.2164383561644,-0.8193498732508441
120,87.58981233243968,767.7131367292225,-0.769136537640928
121,88.63586956521739,766.8641304347826,-0.7196284109466096
122,89.6524064171123,766.1336898395722,-0.6859993725451978
123,90.72950819672131,765.5136612021857,-0.6507077570782592
124,91.77534246575343,764.7315068493151,-0.6244789920923453
125,92.932944606414,764.1865889212828,-0.590256551089479
126,93.99717514124293,763.7994350282486,-0.5642697244768929
127,95.25,763.0416666666666,-0.5502263146054659
128,96.1,762.3970588235294,-0.533351929630261
129,97.5,762.3871951219512,-0.512075008633283
130,98.62797619047619,762.2321428571429,-0.5007970394231532
131,99.58544303797468,761.5981012658228,-0.4797285975359287
132,100.9042904290429,761.4257425742575,-0.4711638130126827
133,101.86363636363636,761.0454545454545,-0.4588354340853043
134,102.87241379310345,760.5034482758621,-0.44371683319716454
135,104.13382899628253,760.7063197026023,-0.43397423304724453
136,105.27272727272727,760.695652173913,-0.4260027752848887
137,106.22633744855968,760.477366255144,-0.4159229694062015
138,107.31120331950207,760.2780082987551,-0.40793069317210123
139,108.47767857142857,760.5892857142857,-0.395780999727248
140,109.31481481481481,760.0787037037037,-0.3957320661641655
141,110.22167487684729,759.5615763546798,-0.3904093859878619
142,111.45408163265306,760.1836734693877,-0.38576886818893236
143,112.75280898876404,760.9101123595506,-0.38277537462132255
144,113.70689655172414,760.8908045977012,-0.37925782979147027
145,114.39634146341463,760.1341463414634,-0.37110658699517596
146,115.32467532467533,760.1168831168832,-0.37392748602610115
147,116.20979020979021,760.1538461538462,-0.36869187365470685
148,116.96402877697842,759.7625899280575,-0.3743103578105983
149,118.04477611940298,759.8283582089553,-0.37348331124633294
150,118.72992700729927,759.9197080291971,-0.3773419474832221
151,119.43650793650794,759.3968253968254,-0.378606952402085
152,120.34959349593495,759.7235772357724,-0.3935835852749195
153,121.39097744360902,760.7218045112782,-0.394348485200777
154,122.35915492957747,761.0140845070423,-0.40703383051684805
155,123.29655172413793,761.2275862068966,-0.41322931001256186
156,124.10526315789474,761.9934210526316,-0.4377930610166482
157,124.59740259740259,761.3701298701299,-0.4570243940936677
158,125.78616352201257,762.7547169811321,-0.4609604501858386
159,126.5875,763.0,-0.4962499195187424
160,127.44632768361582,763.5988700564972,-0.5066058847896553
161,128.33734939759034,764.210843373494,-0.5327589302233872
162,129.34883720930233,764.9186046511628,-0.5492103303330276
163,130.13636363636363,765.5909090909091,-0.5889758664778687
164,131.16949152542372,766.5084745762712,-0.6126156140912326
165,131.82608695652175,767.0380434782609,-0.6289832455270212
166,132.59459459459458,767.7351351351351,-0.6945427063597882
167,133.5978835978836,768.5714285714286,-0.6788318870454545
168,134.51351351351352,769.3675675675676,-0.6467638510451862
169,135.23834196891193,770.0310880829015,-0.6872623590853143
170,135.9141414141414,770.8131313131313,0.525462851918649
171,136.74,771.675,0.5481094045388238
172,137.7704081632653,772.4132653061224,0.5725493074499438
173,138.53571428571428,773.280612244898,0.548710246383913
174,139.41450777202073,773.9948186528497,0.5083181073514552
175,140.1185567010309,774.8041237113403,0.5072796848855478
176,140.93564356435644,775.4653465346535,0.5095326308812619
177,141.86,775.95,0.46797217923803247
178,142.5721649484536,776.8350515463917,0.45091591137545783
179,143.26666666666665,777.774358974359,0.43961026392037955
180,143.95566502463055,778.4039408866995,0.4137797390698836
181,144.78061224489795,778.9438775510204,0.4068321415564176
182,145.55729166666669,779.5989583333334,0.3975386935980036
183,146.54639175257734,779.7216494845361,0.3772758867430572
184,147.04891304347825,780.7826086956521,0.3660400562032447
185,148.05555555555554,780.5944444444444,0.35747202487480423
186,148.74011299435028,781.1581920903955,0.3492341482962993
187,149.39655172413794,781.7471264367816,0.3423025763142976
188,150.33333333333331,781.6785714285714,0.341204433706773
189,151.11764705882354,781.7764705882353,0.3316631374644454
190,151.5487804878049,782.9268292682926,0.3254174174358106
191,152.34177215189874,783.0949367088608,0.3242129752907203
192,152.875,783.8552631578948,0.32856893930143405
193,153.51351351351352,784.2905405405405,0.3228631659384448
194,154.42105263157896,784.0526315789474,0.31644135705285165
195,155.02898550724638,784.4347826086956,0.3207875738560723
196,155.35971223021585,785.6115107913669,0.3180261013019638
197,156.0072463768116,785.8260869565217,0.3195894447480133
198,156.34751773049646,786.7588652482269,0.31270524301082886
199,156.73913043478262,787.8478260869565,0.3169718290050001
200,157.49264705882354,787.4852941176471,0.32553141530236407
201,158.04794520547944,787.8082191780823,0.32253457511661493
202,158.3404255319149,788.6950354609929,0.32835900246583233
203,158.94520547945206,788.8013698630137,0.3332948400856951
204,159.36184210526318,789.421052631579,0.33975523153034193
205,160.13725490196077,788.6928104575163,0.34367294178925195
206,160.49693251533742,789.4049079754601,0.34975944037054724
207,161.45061728395063,788.3765432098766,0.3550867083237187
208,161.89204545454544,788.75,0.3687887110623513
209,162.69230769230768,788.0494505494505,0.3768546338972746
210,162.93157894736842,788.878947368421,0.38841175201355754
211,163.71649484536084,788.1288659793814,0.4024318973260326
212,164.08040201005025,788.2964824120603,0.41654508790605377
213,164.80676328502415,787.4347826086956,0.4303939454297994
214,165.5049019607843,787.1715686274509,0.43765115029395335
215,166.19815668202764,786.63133640553,0.45962250393985177
216,166.7556561085973,786.0814479638009,0.4867806013516277
217,167.5151515151515,785.3766233766233,0.49712831844644667
218,167.86936936936937,785.3198198198198,0.5268750316263153
219,168.93965517241378,783.9698275862069,0.543424903809577
220,169.28389830508473,783.9406779661017,0.5730009019703591
221,169.97033898305085,783.1737288135594,0.6057274709053764
222,170.6375,782.4333333333334,0.6449306658751811
223,171.29460580912863,781.5435684647302,0.6771582428580972
224,171.72064777327935,781.165991902834,0.7296234200070711
225,172.5483870967742,780.4153225806451,0.7708825146819863
226,173.34939759036143,779.5341365461848,0.8432439237515625
227,173.66265060240966,778.9477911646586,0.9426943857824726
228,174.201581027668,778.1778656126482,1.0821304172664188
229,175.12048192771084,777.5060240963855,1.2168911525033745
230,175.53488372093022,776.7015503875969,1.5162592584737031
231,176.3734939759036,776.0923694779117,-1.4434214208555625
232,176.81027667984188,775.3675889328064,-1.0966869816419011
233,177.45381526104416,774.5582329317269,-0.9657037671773215
234,178.32244897959185,773.8653061224489,-0.8849641700298777
235,178.68571428571428,773.1020408163265,-0.7893593094539595
236,179.48571428571427,772.5836734693878,-0.7633851978104998
237,180.00416666666666,771.7208333333333,-0.7014765006148225
238,180.79183673469387,771.261224489796,-0.672851004995
239,181.35930735930737,770.5151515151515,-0.6228419968577515
240,182.0085836909871,769.8669527896996,-0.5884977579477909
241,182.55309734513276,769.287610619469,-0.5626059014315783
242,183.3568281938326,768.6960352422907,-0.533669665196888
243,184.0772727272727,768.4409090909091,-0.522786239269868
244,184.59447004608296,767.6451612903226,-0.49388786316259525
245,185.27053140096618,767.3864734299517,-0.47057787641916166
246,185.74761904761905,766.4380952380952,-0.46468744115152827
247,186.54497354497354,766.4603174603175,-0.4433530816179061
248,187.2565445026178,766.1465968586388,-0.436239125425015
249,187.82872928176795,765.6077348066299,-0.42483577233030756
250,188.35359116022101,765.3204419889503,-0.40300262124110015
251,188.97714285714284,764.7542857142857,-0.398829646572535
252,189.6280487804878,764.6219512195122,-0.39146457273233837
253,190.4320987654321,764.820987654321,-0.38386662588006126
254,190.92903225806452,764.1806451612904,-0.3739834922442875
255,191.4255319148936,763.822695035461,-0.3608000709052906
256,192.25185185185185,763.8814814814815,-0.3594226328304348
257,192.51408450704224,763.2323943661972,-0.3533110060566999
258,193.05,762.7714285714286,-0.3439194599393849
259,193.35915492957747,762.0985915492957,-0.34401852876720196
260,193.8529411764706,761.7132352941177,-0.33901690256953937
261,194.34615384615384,761.2384615384615,-0.3337240414334313
262,194.46376811594203,760.2898550724638,-0.33426774884941973
263,195.25,760.5530303030303,-0.33048125080985885
264,195.5177304964539,759.8581560283687,-0.3337028004083962
265,196.43055555555554,760.75,-0.33281797281079833
266,196.6818181818182,760.0844155844156,-0.337613192642439
267,197.38157894736844,760.5723684210526,-0.3353865273416535
268,197.83529411764704,760.4058823529411,-0.34353883629408916
269,198.36470588235295,760.2352941176471,-0.34082512979632523
270,198.9593023255814,760.6279069767442,-0.34293345068591485
271,199.3891891891892,760.5621621621622,-0.3492513236783604
272,200.31182795698925,761.6881720430108,-0.3522467177231275
273,200.49479166666669,761.0364583333334,-0.36311534945388746
274,201.1778846153846,761.8365384615385,-0.3623600253722781
275,201.74019607843138,761.9950980392157,-0.37312165304198636
276,202.31050228310502,762.4611872146119,-0.3838397811505825
277,202.87383177570092,763.0560747663551,-0.3933113312417345
278,203.32,763.2533333333333,-0.4040994894560184
279,203.86363636363637,763.7363636363636,-0.4128795323430654
280,204.35930735930737,764.1774891774892,-0.42653948123194857
281,204.97272727272727,764.6454545454545,-0.43734734559065724
282,205.36170212765956,765.0042553191489,-0.45809968501870013
283,206.01702127659576,765.6170212765958,-0.4575983978537751
284,206.52916666666667,766.3083333333334,-0.486416815611442
285,207.05172413793105,766.7543103448276,-0.4922925175005942
286,207.45762711864407,767.2415254237288,-0.5328755074046039
287,208.17903930131004,767.938864628821,-0.5401163662646733
288,208.75324675324674,768.8095238095239,-0.5973100495163769
289,209.15450643776825,769.3047210300429,-0.5774571119048618
290,209.66956521739132,770.0,-0.6427461263414952
291,210.20627802690584,770.5695067264573,-0.6822598249136022
292,210.5276595744681,771.1829787234043,-0.7590149147082718
293,211.1461187214612,771.7351598173516,-0.7676590953531016
294,211.83035714285714,772.5714285714286,-0.8976162819571567
295,212.22522522522524,773.2072072072071,-0.9637907552078117
296,212.8356807511737,773.7417840375587,1.4871926957434114
297,213.16355140186914,774.4579439252336,1.079591481848539
298,213.65277777777777,775.2453703703703,0.9310615814209662
299,214.0625,775.8461538461538,0.8593550441004654
300,214.8125,776.4711538461538,0.8027520466493991
301,215.14851485148515,777.2970297029703,0.7532184417541438
302,215.79310344827587,777.6502463054187,0.7123638721690633
303,216.08717948717947,778.6871794871795,0.6629049737523752
304,216.73469387755102,779.1581632653061,0.6678656225966612
305,217.23936170212767,779.5106382978723,0.6112570679887356
306,217.7262569832402,780.2402234636871,0.5980662336198255
307,218.125,781.0434782608695,0.5709085012525077
308,218.57142857142856,781.5494505494505,0.553452699237548
309,219.23699421965318,781.9190751445087,0.525208595136766
310,219.81034482758622,782.2471264367816,0.5073966058650009
311,220.08235294117645,783.1411764705882,0.48903601253461443
312,220.79754601226995,783.1963190184049,0.4645843600867839
313,221.36363636363637,783.5324675324675,0.4569617651970595
314,221.75163398692808,784.0784313725491,0.44501218941238996
315,222.32666666666665,784.4133333333333,0.4353277288201916
316,222.80132450331126,784.9470198675497,0.4241555909221696
317,223.35766423357666,785.0,0.4121145688819201
318,223.85714285714286,785.1954887218045,0.40091117135630605
319,224.36296296296297,785.4296296296296,0.3942569581687199
320,224.72262773722628,786.1167883211679,0.38639137961145453
321,225.06923076923078,786.5692307692308,0.3871879324356082
322,225.640625,786.75,0.3714416671147028
323,225.5076923076923,788.4230769230769,0.3712074244903395
324,225.9296875,788.4375,0.3701369554193979
325,226.328125,789.1484375,0.3555775152313553
326,226.95901639344262,788.7622950819672,0.3572382043221825
327,227.25,789.5703125,0.3555184773331055
328,227.33582089552237,790.3656716417911,0.35068411491887747
329,227.83969465648855,790.5267175572519,0.3457482985814863
330,228.26277372262774,790.8029197080292,0.3462833891499659
331,228.296875,791.7734375,0.34356009839150276
332,228.5944055944056,792.3916083916084,0.3469873756291027
333,228.98529411764707,792.4191176470588,0.34543755103751356
334,229.3846153846154,792.6643356643357,0.34047769786249116
335,229.7945205479452,792.8767123287671,0.34275725572102955
336,230.34437086092714,792.5496688741722,0.34717508874843833
337,230.64625850340136,793.0544217687075,0.3493834512833239
338,231.0691823899371,793.0817610062893,0.3539434679744503
339,231.4121212121212,793.3939393939394,0.3510599160196058
340,231.95180722891567,792.9277108433735,0.35746332981634577
341,232.2994011976048,793.0299401197605,0.3642881261375996
342,232.56395348837208,793.2441860465117,0.3696071198950169
343,233.23529411764707,792.7647058823529,0.36850625852915514
344,233.45454545454544,792.8409090909091,0.3722884310302253
345,234.1098901098901,792.3296703296703,0.38392678442360717
346,234.44623655913978,792.2688172043011,0.38529137536076635
347,234.9027027027027,792.1783783783784,0.39935828991788713
348,235.43298969072166,791.639175257732,0.4062985844925444
349,235.82142857142856,791.4438775510204,0.4166584115050261
350,236.38888888888889,791.1212121212121,0.4186018393978801
351,236.67326732673268,790.8960396039604,0.4351696251875636
352,237.27053140096618,790.4830917874397,0.4418219390932682
353,237.47846889952154,790.444976076555,0.45221467884504646
354,238.15714285714284,789.4428571428572,0.46851155016213913
355,238.54716981132077,789.5047169811321,0.4750343802286719
356,239.07272727272726,788.8045454545454,0.4969088020018379
357,239.4724770642202,788.4908256880734,0.49809593189518003
358,239.76470588235293,788.2850678733032,0.5308083488273859
359,240.27188940092168,787.516129032258,0.5457682454641927
360,240.66964285714286,787.3839285714286,0.571247010780587
361,241.1390134529148,786.7937219730942,0.5781043974874528
362,241.66517857142856,786.0267857142857,0.6236109147838488
363,242.2837837837838,785.490990990991,0.6359587139971956
364,242.58849557522126,785.1238938053098,0.6611033012964251
365,243.10859728506787,784.5384615384615,0.7046887341451064
366,243.74666666666667,783.6711111111111,0.7355536770763345
367,244.1725663716814,783.3230088495575,0.761626854689769
368,244.4090909090909,782.8681818181818,0.8471214763622875
369,245.03619909502262,782.1809954751131,0.8962784568637465
370,245.39285714285714,781.7232142857143,1.0150405685066606
371,245.96363636363637,781.1681818181818,1.0785897835622078
372,246.41176470588235,780.3755656108597,1.4773333011543544
373,246.875,779.8518518518518,-1.2277129889456937
374,247.16157205240177,779.353711790393,-1.0246005176544926
375,247.66976744186047,778.7162790697674,-0.8836036570846393
376,248.44036697247708,778.2935779816514,-0.8240916970421093
377,248.90140845070422,777.7276995305165,-0.7264129287045127
378,249.22065727699533,777.2723004694835,-0.7001238476771158
379,249.83412322274881,776.7630331753554,-0.6498914176639715
380,250.18357487922705,776.1932367149758,-0.6084922217938042
381,250.53960396039605,775.529702970297,-0.5918038982859496
382,251.2613065326633,775.1758793969849,-0.569014390824072
383,251.68844221105527,774.5527638190955,-0.5572630792571852
384,252.0502512562814,773.9849246231156,-0.5233835238585891
