FrameNo,Row,Column,Angle
42,24.954627949183305,711.1361161524501,-1.221857795765964
43,26.248166259168705,710.4535452322739,-1.2274547404718246
44,28.60990338164251,710.4468599033817,-1.23419210558869
45,31.36157517899761,710.2875894988067,-1.2365699979829703
46,32.96158463385354,710.1608643457383,-1.2347693436920328
47,35.34348355663825,710.047503045067,-1.2275180928822085
48,37.46795646916566,709.9226118500604,-1.2294339439169137
49,39.619854721549636,709.590799031477,-1.221526365999854
50,42.313267813267814,709.6437346437347,-1.2177516869783334
51,44.35560859188544,709.2816229116945,-1.23582770158149
52,46.56204379562044,709.3734793187348,-1.216079538200211
53,48.82603406326034,709.0912408759124,-1.2168940650178224
54,51.128236744759555,709.0308261405672,-1.2179913695798372
55,53.37956204379562,709.0571776155717,-1.2121422634641144
56,55.67156862745098,708.7659313725491,-1.2088247106542007
57,57.79650436953808,708.458177278402,-1.2097400557143736
58,60.15080346106304,708.4919653893696,-1.2079811822666056
59,62.42484472049689,708.3142857142857,-1.2109307254430197
60,64.729088639201,708.1860174781523,-1.2107688260014287
61,67.10442260442261,708.1793611793612,-1.2077628839935142
62,69.43995098039215,707.9399509803922,-1.1919624436139957
63,71.68164794007491,708.016229712859,-1.2036886375255313
64,73.93467336683418,707.7525125628141,-1.1979156272365221
65,76.28894472361809,707.7035175879397,-1.1948163948526027
66,78.54443053817272,707.5644555694619,-1.1978903098220435
67,80.99236641221374,707.4669211195928,-1.20120219436222
68,83.40797940797941,707.3719433719434,-1.1971049657401267
69,85.68694550063371,707.0925221799746,-1.2027497136239518
70,87.89076723016905,707.0845253576073,-1.1871378152958616
71,90.25065274151436,707.1305483028721,-1.1927681443452645
72,92.6870026525199,707.0490716180371,-1.1944253278029495
73,94.61548556430446,706.8438320209974,-1.2004368585022929
74,97.15881561238223,706.721399730821,-1.200812866891384
75,99.30393487109905,706.6227951153325,-1.1998394140513085
76,101.80437756497948,706.5540355677155,-1.1883334504824523
77,104.3156462585034,706.5469387755102,-1.1819067771919332
78,106.72375690607734,706.4848066298342,-1.1830345436093583
79,108.60529986052998,706.189679218968,-1.184529788352831
80,111.32489451476793,706.2447257383966,-1.1894193613368678
81,113.68142857142857,706.1171428571429,-1.1899121829946133
82,115.96551724137932,705.903735632184,-1.191907408190148
83,118.10263929618769,705.9120234604105,-1.1848432128300552
84,120.62797619047619,706.0059523809524,-1.1862292243131192
85,122.78463855421687,705.8629518072289,-1.1826393153751449
86,125.49319213313161,705.7927382753404,-1.1816657033121378
87,128.0564263322884,705.9639498432601,-1.1901428868168324
88,130.32859399684043,705.9399684044233,-1.1889820245124936
89,132.62251655629137,705.7235099337748,-1.186666670320273
90,135.04368932038835,705.7265372168284,-1.1917288554787366
91,137.19932432432432,705.6216216216217,-1.1924613221114713
92,139.9189189189189,705.6503378378378,-1.1900249429440828
93,142.393470790378,705.7542955326461,-1.1925044872520778
94,144.78787878787878,705.590017825312,-1.1859354634106294
95,146.9310344827586,705.4845735027224,-1.1886474534463074
96,149.7449168207024,705.7892791127541,-1.1882067874051963
97,151.54191033138403,705.4307992202729,-1.195432510000054
98,153.76538461538462,705.5730769230769,-1.209977817269096
99,156.61770623742456,705.6599597585513,-1.201556304055158
100,159.1858037578288,705.7265135699374,-1.2006629416007835
101,161.48347107438016,705.5723140495868,-1.199374973550158
102,164.0520607375271,705.7462039045553,-1.2046450824789414
103,166.45681818181816,705.8772727272727,-1.2092504956295531
104,168.7782805429864,705.710407239819,-1.2022696098076338
105,171.3002421307506,705.8523002421307,-1.2099534411362562
106,173.78217821782178,706.0272277227723,-1.2147616463835984
107,176.40102827763496,706.2287917737789,-1.2207300484690775
108,179.0909090909091,706.3506493506493,-1.225431037076575
109,181.5934065934066,706.4313186813187,-1.2235306634873218
110,184.10951008645532,706.5878962536024,-1.2236262285642139
111,187.0810810810811,706.8588588588589,-1.2339674679433577
112,189.55891238670694,706.9577039274925,-1.240410955418294
113,192.31230283911674,707.186119873817,-1.2408876130231001
114,195.08408408408408,707.4924924924925,-1.2461421616690067
115,197.74474474474476,707.5705705705706,-1.2529070519722438
116,200.55325443786984,707.7633136094674,-1.2513738247089108
117,202.95072463768116,707.9014492753623,-1.258570067853122
118,205.13315217391306,708.054347826087,-1.2628536373192347
119,207.17941952506595,707.957783641161,-1.2696178421976
120,209.326582278481,708.0177215189874,-1.2794495950601248
121,212.24874371859295,708.0603015075377,-1.281990291734711
122,214.6764705882353,708.3504901960785,-1.2804847332054292
123,216.98598130841123,708.4579439252336,-1.291760863696934
124,219.15505617977527,708.5797752808988,-1.294160772446791
125,221.58258928571428,708.6852678571429,-1.3014854041393
126,224.13389121338912,708.9497907949791,-1.3115189780838645
127,226.11088295687887,708.9733059548255,-1.3301060331618975
128,228.688622754491,709.245508982036,-1.333769885279602
129,231.19721115537848,709.3884462151394,-1.3367766603077675
130,233.42829076620825,709.4970530451867,-1.3494181902160238
131,236.09814814814814,709.8907407407407,-1.3502814809505248
132,238.26714801444044,709.9512635379061,-1.3696034355371047
133,240.5222024866785,710.291296625222,-1.389522838431443
134,242.85353535353534,710.6144781144781,-1.4161322177555804
135,245.48986486486487,710.8429054054054,-1.4041400977625615
136,247.9579831932773,711.0134453781512,-1.416176850131884
137,250.38474295190713,711.2437810945273,-1.429980598318384
138,253.21608832807573,711.686119873817,-1.4261391808760422
139,255.2314960629921,711.8614173228347,-1.4449688321101024
140,257.7931034482759,711.9811912225705,-1.4647208922976933
141,260.07608695652175,712.274844720497,-1.479790889161773
142,262.5084226646248,712.6263399693721,-1.4907127067862016
143,265.0933734939759,712.6536144578313,-1.5193454974038154
144,267.168115942029,713.3159420289855,-1.5358266985713414
145,269.90629575402636,713.5622254758418,-1.5531450006464118
146,272.43145743145743,713.8513708513708,-1.5610818449742214
147,274.40575539568346,714.2647482014388,1.5599234711921206
148,276.4793741109531,714.5334281650071,1.5454996675752346
149,279.60752688172045,715.1612903225806,1.5341743503788887
150,281.64673157162724,715.2934631432545,1.5064213605416497
151,283.9287671232877,715.7986301369863,1.4941098504561623
152,286.2093023255814,716.0068399452805,1.4800199306525181
153,288.1971090670171,716.3902759526939,1.4452966095151374
154,291.17283950617286,716.8724279835391,1.4342169099590762
155,293.7341430499325,717.17004048583,1.4135959070090176
156,296.1040540540541,717.5864864864865,1.395234777336716
157,298.5838926174497,717.9422818791946,1.3832541537866208
158,300.87747035573125,718.5546772068511,1.3576943613631323
159,303.2509855453351,718.9487516425755,1.3385193874637606
160,306.0916334661355,719.2855245683932,1.3287158549933535
161,308.1957104557641,719.6233243967829,1.3076010776426146
162,311.0247395833333,719.8815104166666,1.2861648927340408
163,313.001300390117,720.3446033810143,1.2765705329062602
164,315.1864406779661,720.9400260756192,1.2426783716080723
165,317.69473684210527,721.2973684210526,1.2307478460290975
166,319.94354838709677,721.7043010752689,1.2255223835002444
167,322.5184210526316,722.3776315789473,1.1891459835738183
168,324.832674571805,722.532279314888,1.1876785145726152
169,327.38955823293173,722.9531459170014,1.1744788554442385
170,329.4737532808399,723.1627296587926,1.1620026178814997
171,332.62125340599454,723.5286103542235,1.1404040357105538
172,334.6123287671233,724.0095890410959,1.1276423367890709
173,337.26200274348423,724.3100137174212,1.1202021022804673
174,339.8941655359566,724.80868385346,1.1240886206807665
175,341.7132867132867,725.241958041958,1.097172183059315
176,344.24649859943975,725.6470588235294,1.0854523466024943
177,346.25392296718974,726.1255349500714,1.0735513139335797
178,348.9746835443038,726.3417721518988,1.0518384271075472
179,351.02714285714285,726.7442857142858,1.0452789144510068
180,354.2258992805755,726.8762589928058,1.0614947516028268
181,356.0487444608567,727.3412112259971,1.035612858587257
182,358.109756097561,727.702743902439,1.0260680655721648
183,360.746500777605,727.8491446345256,1.0144770593398398
184,363.339393939394,728.1681818181818,1.0321201997933482
185,365.53044871794873,728.4903846153846,1.0099012060481358
186,368.041935483871,728.5564516129032,1.0084899153261713
187,370.2287581699346,728.8202614379085,0.9962028444729021
188,373.1421568627451,728.9183006535948,0.9959587745727874
189,374.88756388415675,729.3645655877342,0.9876354231948277
190,377.52724077328645,729.3427065026362,0.9790107490205588
191,379.9107142857143,729.4642857142857,0.9733097368944714
192,382.35140186915885,729.4859813084112,0.9763552035897491
193,384.64341085271315,729.6201550387597,0.9775681810960376
194,386.8938223938224,729.8455598455598,0.9746534753761659
195,389.36252545824846,729.8513238289206,0.9778344101373778
196,392.22314049586777,729.5392561983471,0.9738580875909719
197,394.40557939914163,729.6716738197425,0.9741783482052372
198,396.8222222222222,729.7333333333333,0.970734232921764
199,399.0977272727273,729.6863636363637,0.9772851805502186
200,402.05159705159707,729.2186732186732,0.9798714716789081
201,404.5205811138014,729.1065375302663,0.9865589526007634
202,407.13086419753085,728.8296296296296,0.9932399546750217
203,409.5194805194805,728.6155844155844,0.9963598410634733
204,412.03439153439155,728.2962962962963,1.0000708013939197
205,414.6393861892583,728.1918158567775,1.013228716213392
206,417.2135416666667,727.7239583333334,1.0108043042496537
207,419.53229974160206,727.6227390180878,1.0293657015973623
208,422.40250000000003,727.0925,1.0349942726717922
209,425.10513447432766,726.6797066014669,1.047692240557068
210,427.17336683417085,726.5954773869347,1.0540836593132157
211,429.4801864801865,726.2867132867133,1.0723610868205664
212,432.3232558139535,725.8511627906977,1.0821693618187573
213,434.1457399103139,725.719730941704,1.085484782739065
214,436.32300884955754,725.5265486725664,1.1137752111335113
215,438.9853249475891,725.1320754716982,1.1179982005945763
216,441.0924369747899,724.6659663865546,1.1455490156995352
217,443.4392712550607,724.3846153846154,1.1569697312169285
218,445.5077821011673,723.9610894941634,1.175790051240337
219,447.6045197740113,723.7419962335216,1.1998054768633626
220,450.0435606060606,723.0662878787879,1.226682443176722
221,452.22242647058823,722.4522058823529,1.250069247480231
222,454.3985765124555,722.2366548042704,1.2665621859300817
223,456.39506172839504,721.6931216931217,1.2876263887562331
224,458.9719298245614,720.859649122807,1.3425150176037879
225,461.5595238095238,720.1411564625851,1.377096199088457
226,463.7629757785467,719.5190311418685,1.4119357846205747
227,465.7696160267112,718.958263772955,1.4496623009515923
228,468.1834710743802,718.2264462809917,1.5003655389197992
229,470.1859706362153,717.463295269168,1.530476119598493
230,473.0440251572327,716.6981132075472,-1.566464807132873
231,474.4123076923077,715.8184615384615,-1.4968043045462012
232,477.0091324200913,715.1156773211568,-1.4762054104846296
233,479.73394495412845,714.2675840978593,-1.4262136398337038
234,481.7455357142857,713.453869047619,-1.3703622993963698
235,484.20851688693097,712.5741556534508,-1.3248848758830813
236,486.3145743145743,711.7113997113997,-1.268207030189675
237,488.55555555555554,710.9662447257384,-1.2131366025859496
238,490.98446327683615,709.8855932203389,-1.1611515512922275
239,493.42556179775283,709.1741573033707,-1.122159923504725
240,495.6133879781421,708.5040983606557,-1.0439732640530797
241,498.2357723577236,707.3550135501355,-1.0374948217357094
242,499.9638888888889,706.3805555555556,-0.9732378682872486
243,502.17503392130254,705.4640434192673,-0.9391967444728937
244,504.5361527967258,704.6111869031378,-0.8917203345172467
245,506.95652173913044,703.8695652173913,-0.8531937015384015
246,509.218085106383,703.1968085106383,-0.8177892485397958
247,511.28840970350404,702.0121293800539,-0.790784813328406
248,513.5454545454545,701.2339572192514,-0.7619971808868413
249,515.606100795756,700.1976127320955,-0.729421052782882
250,518.239417989418,700.0687830687831,-0.7141445259790824
251,520.4108843537415,698.8925170068027,-0.6878209383775404
252,522.606512890095,698.3134328358209,-0.6604866362621483
253,524.899182561308,697.6907356948229,-0.6383234446637651
254,526.5381471389646,696.5217983651227,-0.6341192544238189
255,529.2787794729543,696.2024965325936,-0.606498021487213
256,531.5617198335644,695.8987517337032,-0.5809022043315905
257,533.5462304409673,694.8108108108108,-0.5734149489818906
258,536.0320699708454,694.7594752186588,-0.557840575173351
259,537.8848396501458,693.704081632653,-0.5520494301881934
260,540.0764617691154,693.2923538230884,-0.5375358038885073
261,542.3169230769231,692.8815384615384,-0.5296177699354653
262,544.353488372093,692.5379844961241,-0.5260509053348403
263,546.5248796147673,691.9213483146068,-0.5173558532829223
264,548.860883797054,691.8641571194763,-0.510304916744668
265,550.9036544850499,691.3820598006645,-0.501035043572748
266,553.1767676767677,691.6683501683501,-0.4992441228501903
267,555.3616636528029,691.4593128390596,-0.4898843469729968
268,557.249547920434,691.0108499095841,-0.48797670351174627
269,559.9270633397313,691.8023032629559,-0.4814577112087741
270,561.7027027027027,691.3281853281853,-0.4868895655977441
271,563.5804480651731,690.8228105906313,-0.4869782185654861
272,566.0549682875264,691.3340380549682,-0.48418474679118073
273,568.1218961625282,691.3769751693002,-0.4888853936374988
274,570.304449648712,691.8056206088993,-0.4889971906472502
275,572.3475,691.9775,-0.5004323823199383
276,574.6486486486486,692.5891891891891,-0.50172901963642
277,576.406528189911,692.3353115727003,-0.5104005264336805
278,578.7051282051282,693.1474358974359,-0.5263678281053894
279,581.0633333333333,693.7366666666667,-0.5331610107202293
280,583.0804195804196,694.1818181818182,-0.5502192496082874
281,585.784140969163,695.3259911894273,-0.5614470715751816
282,593.4883720930233,704.5581395348837,-0.5307143428378982
283,589.3579766536965,695.4241245136187,-0.6153371870153594
284,591.0445344129555,695.4372469635628,-0.6393949548617152
285,592.984,695.664,-0.6722238155039164
286,594.7461538461539,695.9961538461539,-0.7167376379834842
287,596.8351648351648,696.5018315018315,-0.7471524811547147
288,598.4767025089606,696.5913978494624,-0.7889275233649354
289,600.4516129032259,697.1756272401434,-0.8419315959698751
290,602.236559139785,697.6093189964158,-0.9162019492099888
291,603.8541666666666,698.0798611111111,-1.0030862008896524
292,605.8035087719298,698.6631578947369,-1.1086342406448535
293,607.7389830508474,699.4813559322034,-1.2248475203402844
294,609.4276315789474,700.0986842105264,-1.359147672399654
295,611.377358490566,701.0283018867924,1.508915640130037
296,613.2186588921282,701.7755102040817,1.125727080778453
297,615.0685714285714,702.5685714285714,0.813031834819612
298,617.1071428571429,703.0989010989011,0.6655518717329573
299,618.8307692307692,704.0179487179487,0.5518710343010857
300,620.8808933002481,705.0074441687345,0.4730440678916723
301,622.4646226415094,705.9551886792453,0.4341968434932784
302,624.6879271070615,706.6013667425968,0.3900119595126082
303,626.1692307692308,707.9230769230769,0.35381136312442624
304,628.0087145969499,708.2374727668846,0.3243151486662423
305,630.1333333333333,709.0774193548388,0.2904273685568677
306,631.7042253521126,710.3058350100604,0.2823042718196774
307,633.5218295218295,710.6237006237006,0.260539235774879
308,635.261208576998,711.1910331384015,0.2277849093276024
309,637.0671936758894,711.9861660079051,0.22963819515588751
310,639.0093109869646,713.2178770949721,0.2097585484653698
311,640.7923076923076,713.1557692307692,0.21861823478432943
312,642.5787476280835,714.0967741935484,0.19944527029684408
313,644.3442940038685,714.2707930367505,0.17738877145996665
314,646.0750469043152,714.8405253283302,0.18645285281250107
315,647.8981481481482,714.6296296296297,0.17558660082784996
316,649.6041666666666,715.0492424242424,0.17178819282886693
317,651.2764705882353,715.3666666666667,0.16449487823304684
318,653.0608365019011,714.9049429657795,0.15289351310375512
319,654.5581854043393,715.9921104536489,0.15726092846343928
320,656.2738336713996,715.4421906693713,0.15699139233379378
321,658.0792291220557,715.4453961456103,0.14898175223042878
322,659.7995689655172,714.8362068965517,0.15035754819995548
323,661.3938053097345,715.0796460176991,0.1575463257755999
324,662.9301310043668,714.8253275109171,0.14144502310795237
325,664.6818181818182,714.6483253588517,0.15480823119492843
326,666.3532219570405,714.4606205250597,0.16987781639563115
327,667.9455958549223,713.8264248704663,0.17016244171398306
328,669.7058823529412,712.890756302521,0.1674162292222564
329,671.3123209169055,712.189111747851,0.18108935362179432
330,672.7697160883281,712.2839116719243,0.1907136682411738
331,674.3396825396826,711.3777777777777,0.1985649095462398
332,675.8817204301075,711.0,0.2133857053963353
333,677.7745454545454,709.4763636363637,0.21851355943328102
334,679.004016064257,709.2128514056225,0.23745921431241326
335,680.9557195571956,707.830258302583,0.2725601781644068
336,682.3759689922481,707.5116279069767,0.2655847778093588
337,683.8294573643411,706.8255813953489,0.2978397010110789
338,685.3935742971887,705.6385542168675,0.3154576395329125
339,686.784,705.52,0.3527950498087764
340,688.4448818897638,704.6692913385826,0.40942890391144227
341,689.5864978902954,703.8776371308016,0.44331451788365656
342,690.9395161290322,703.1814516129032,0.4951015962173602
343,692.6,701.86,0.6049710021429869
344,693.8380566801619,701.1255060728745,0.6755005882848203
345,695.168776371308,699.8987341772151,0.8285155565239942
346,696.719696969697,698.75,-1.2557373120691662
347,697.8475836431227,697.4163568773234,-0.7101098126020853
348,699.4330985915493,696.362676056338,-0.5939076402171206
349,700.796052631579,694.9177631578948,-0.5005461940209294
350,702.1815384615385,693.6769230769231,-0.48621234660425383
351,703.6738461538462,692.6430769230769,-0.4390483383308465
352,705.1578947368421,691.4542936288088,-0.41159238132769316
353,706.380829015544,690.2357512953367,-0.39453662089099983
354,707.7877237851662,689.1969309462916,-0.37268864995132317
355,709.2729591836735,688.1045918367347,-0.34241202121958525
356,710.6386138613861,687.039603960396,-0.33959965925594604
357,712.0473933649289,685.9407582938388,-0.31725488464064827
358,713.3036144578314,685.1373493975904,-0.3104247310597427
359,714.7397260273973,684.2808219178082,-0.30645239576765354
360,716.0023752969121,683.1828978622327,-0.2919258376165092
361,717.4259259259259,682.5486111111111,-0.2962514257201167
362,718.9795918367347,682.4580498866213,-0.2935340276226425
363,720.2954545454545,681.9227272727272,-0.2942169464210968
364,721.6100917431193,681.2866972477065,-0.2872135174843961
365,722.9956331877729,680.7336244541484,-0.28723798290876873
366,724.5475638051043,681.2552204176334,-0.27887682356941174
367,725.9478908188586,681.0372208436725,-0.2844743480489921
368,727.5576923076923,681.40625,-0.2776204097664993
369,728.8320610687023,681.4681933842239,-0.2823332727773709
370,730.5037593984962,682.1052631578948,-0.28603245474157024
371,731.7345360824743,681.9149484536083,-0.28573447686623926
372,733.0689655172414,682.1644562334218,-0.3023263912640653
373,734.634349030471,682.9612188365651,-0.2990797509602244
374,735.9303621169917,682.6211699164345,-0.31825279531782813
375,737.5537974683544,683.9272151898734,-0.32294246053445047
376,739.0406779661017,684.8305084745763,-0.3268509417703919
377,740.4948453608247,685.3505154639175,-0.3444806618661236
378,741.8854166666666,685.6423611111111,-0.3689175875293686
379,743.048275862069,685.8413793103448,-0.3794213883365366
