FrameNo,Row,Column,Angle
38,12.874285714285714,788.9142857142857,-1.0426588581822687
39,13.77319587628866,789.5051546391753,-1.1143562150082669
40,15.113138686131387,790.3613138686131,-1.1891497910427866
41,16.551601423487543,791.2597864768684,-1.2795386860861608
42,17.94736842105263,792.4175438596492,-1.3928222771565384
43,19.61512027491409,793.2955326460481,-1.4964383373361474
44,21.085808580858085,794.2574257425742,1.4994781880759964
45,22.32450331125828,795.3079470198676,1.397978804246797
46,23.89710610932476,796.3987138263666,1.20329336467933
47,25.525,797.334375,1.0889754423493327
48,26.89846153846154,798.2646153846154,0.9979612164112258
49,28.466463414634145,799.420731707317,0.888322019888856
50,30.17751479289941,800.1656804733727,0.7955012312055064
51,31.69298245614035,801.1754385964912,0.7303738946943987
52,33.20797720797721,801.980056980057,0.6534567582785706
53,36.181069958847736,801.8189300411523,0.5814704549350826
54,36.40555555555556,803.8527777777778,0.5428893160817864
55,37.83013698630137,804.7342465753425,0.48104273120799107
56,39.446280991735534,805.4600550964187,0.4472237477084788
57,41.17789757412399,805.8436657681941,0.4192466310837334
58,42.57300275482093,806.8264462809917,0.3860366588400424
59,44.114666666666665,807.4586666666667,0.36160435321774753
60,45.671052631578945,808.1684210526316,0.3381233319285787
61,47.28238341968912,808.520725388601,0.31022067598730657
62,48.71823204419889,809.1187845303867,0.28254944464519915
63,50.45994832041344,809.1059431524548,0.26960654976287196
64,51.79019073569482,810.1934604904632,0.2569414595944095
65,53.32198952879581,810.5130890052355,0.24376434470796646
66,55.03651685393258,810.0084269662922,0.22887526098448338
67,56.58923512747875,810.3201133144476,0.21112007573836522
68,57.859154929577464,810.9098591549296,0.20465442967565942
69,59.43119266055046,810.8470948012232,0.18557357106162733
70,61.033742331288344,810.3343558282209,0.17720680899643848
71,62.26086956521739,811.4254658385094,0.17506888337879137
72,63.735395189003434,811.3298969072165,0.15916900965604797
73,65.21305841924399,811.2955326460481,0.15502107505833213
74,66.76296296296296,810.674074074074,0.13592684213975378
75,68.06343283582089,810.8097014925373,0.1474563500326505
76,69.48387096774194,810.4637096774194,0.1405551755807087
77,70.90789473684211,810.640350877193,0.13526236733536262
78,72.48275862068965,808.3379310344827,0.12341494207582174
79,73.74,809.655,0.13542735726282934
80,76.01190476190476,803.0833333333334,0.1113534994130669
81,76.38157894736842,809.2105263157895,0.13477924077839348
82,77.85507246376811,808.6521739130435,0.14282775226924807
83,80.12307692307692,802.4153846153846,0.18386590949062104
84,81.41071428571429,802.9464285714286,0.21171799559287072
85,82.72549019607843,803.6666666666666,0.19893458355858434
86,83.75510204081633,804.4285714285714,0.1772770790569684
87,84.9,806.1333333333333,0.28209389116983774
88,86.49019607843137,805.2549019607843,0.10593069111343427
89,87.21126760563381,805.7746478873239,0.14841057405206393
90,88.72602739726027,805.945205479452,0.12720332219130048
91,89.88571428571429,805.1285714285714,-0.1055831461216549
92,91.02150537634408,804.6881720430108,-0.1474507751484424
93,92.31182795698925,804.6774193548387,-0.15251893286380047
94,93.64545454545454,804.1545454545454,-0.1346404733641429
95,94.625,803.725,-0.13490514521286426
96,95.93893129770993,803.7251908396946,-0.18293993044910345
97,97.0327868852459,803.2295081967213,-0.1933630354920855
98,98.32835820895522,803.4850746268656,-0.19078757712181008
99,99.32432432432432,802.918918918919,-0.20881419196381457
100,100.69871794871794,802.9423076923077,-0.18952114730665418
101,101.83333333333333,802.9382716049382,-0.19666409541307994
102,103.19745222929936,803.8152866242038,-0.21169092947865173
103,104.33908045977012,803.8735632183908,-0.19930790888427816
104,105.42285714285714,804.0914285714285,-0.2208723825263531
105,106.8543046357616,804.8741721854304,-0.22607817080695028
106,109.26785714285714,810.5446428571429,-0.2228861082717274
107,109.28571428571429,805.2261904761905,-0.24584782865999943
108,110.37575757575758,805.7333333333333,-0.24429306834953557
109,111.37058823529412,805.3470588235294,-0.2588073612209127
110,112.1948717948718,804.0461538461539,-0.2610568223321024
111,113.26178010471205,804.5968586387435,-0.27692824465006305
112,114.08018867924528,803.5707547169811,-0.27868574046476635
113,115.2,803.5571428571428,-0.29053981939920265
114,116.37254901960785,804.4166666666666,-0.30973085718713894
115,116.92105263157895,803.0,-0.31560372485639626
116,118.44298245614036,804.3859649122807,-0.3406938178851167
117,119.13513513513513,803.8018018018018,-0.35722578670931104
118,120.45853658536585,805.1756097560975,-0.3778959994352011
119,121.17948717948718,804.7051282051282,-0.39796946339691813
120,122.51965065502183,805.6375545851529,-0.44173532026872586
121,123.41921397379913,805.9039301310044,-0.460349961705634
122,124.35983263598327,806.3891213389121,-0.500681030799989
123,125.64935064935065,807.3549783549784,-0.533137976639156
124,126.75,808.0491071428571,-0.5940108375477066
125,127.92640692640693,809.0735930735931,-0.6508902219396202
126,128.7590909090909,809.5772727272728,-0.7218375269392775
127,129.70642201834863,810.3807339449542,-0.8077688055053804
128,130.71627906976744,811.4558139534884,-0.9053756533884086
129,132.15625,812.6473214285714,-1.0312482557454552
130,132.98148148148147,813.6574074074074,-1.1612757596340795
131,134.15966386554624,815.0336134453781,-1.4393083942439433
132,135.45851528384281,816.4541484716158,1.3963479455075356
133,136.62869198312237,817.6919831223629,1.1012210837760266
134,137.86122448979592,818.8897959183673,0.8812184037932012
135,139.2046332046332,819.8069498069498,0.754971168777637
136,140.48616600790513,821.1778656126482,0.6635870971091061
137,141.53558052434457,822.4119850187266,0.557824357658078
138,142.98175182481754,823.529197080292,0.4956790150365775
139,143.89160839160837,824.6783216783217,0.4748533163473702
140,145.5016835016835,825.2996632996633,0.4249560621192839
141,146.83333333333331,826.0416666666666,0.36861358498487623
142,148.08474576271186,827.1050847457627,0.3270078566553798
143,149.49190938511327,827.4789644012945,0.31859607895338754
144,150.68954248366015,828.2516339869281,0.2918174936945386
145,151.7064516129032,829.9193548387096,0.26384460074261656
146,153.2688524590164,829.4950819672131,0.23992662441873214
147,154.37299035369773,830.5048231511254,0.2224536827895869
148,155.76510067114094,830.5234899328859,0.21719266765273504
149,157.02090592334494,830.616724738676,0.19521685792801155
150,158.1958762886598,831.2371134020618,0.1874052640551615
151,159.54225352112678,831.1021126760563,0.1804050878166194
152,160.62453531598513,831.5947955390335,0.1627327397567828
153,162.0194552529183,830.8599221789883,0.15500864936576347
154,163.05058365758754,831.5914396887159,0.14407149213770842
155,164.1469387755102,831.9142857142857,0.13304461396981676
156,165.54716981132077,830.8632075471698,0.13677910524761902
157,166.82938388625593,830.8909952606635,0.1298671573766019
158,168.0909090909091,829.8352272727273,0.13110495676540315
159,170.40845070422534,819.8169014084507,0.13682382330649376
160,171.51388888888889,820.7222222222222,0.12980512327910285
161,172.53731343283582,821.4029850746268,0.14145487473226628
162,173.3,823.825,0.14019523329079847
163,174.37662337662337,823.3636363636364,0.14177511603669915
164,175.61904761904762,823.6190476190476,0.16170860976005078
165,176.8148148148148,824.0185185185185,0.09576990708375109
166,177.55737704918033,825.7213114754098,0.21340838975746196
167,178.27692307692308,826.7846153846153,0.21129023897909333
168,179.4264705882353,827.3088235294117,0.23180494689419653
169,180.44444444444446,826.3968253968254,0.13238713160636728
170,181.22058823529412,825.9705882352941,-0.010484708743646995
171,182.25581395348837,825.3023255813954,-0.10888390634109399
172,183.42391304347825,825.1630434782609,-0.10588945094628945
173,184.43564356435644,824.8910891089109,-0.13182914343030752
174,185.59375,824.7916666666666,-0.13432616881225626
175,186.46428571428572,824.6339285714286,-0.13349188104719917
176,187.36974789915968,823.7731092436975,-0.14681087210639202
177,188.49624060150376,823.5488721804511,-0.12475692273069275
178,189.59349593495935,824.650406504065,-0.12891589971753178
179,190.42446043165467,823.2158273381295,-0.15395813095082198
180,191.6076923076923,825.4692307692308,-0.13742737106064923
181,192.31972789115645,823.6326530612245,-0.1405308219467444
182,193.48993288590606,824.4563758389262,-0.16090044148412175
183,195.4,831.3333333333334,-0.1432625903732006
184,196.025,828.9833333333333,-0.1630631869820134
185,196.42331288343559,825.4723926380368,-0.17757550737578545
186,197.24844720496895,825.3105590062112,-0.1755763284823021
187,198.32075471698113,826.433962264151,-0.18136073991343843
188,199.18562874251495,826.2035928143713,-0.19782607868363927
189,200.05263157894737,825.9181286549708,-0.20462810920794489
190,200.91525423728814,826.2090395480226,-0.2107870691693783
191,201.43617021276594,824.781914893617,-0.22690235003032647
192,202.40298507462688,824.8855721393035,-0.23202934268530348
193,203.3785310734463,825.8644067796611,-0.2484584535758685
194,204.05612244897958,825.1224489795918,-0.26092294811063454
195,204.85365853658539,825.2439024390244,-0.28054956612485044
196,205.74647887323943,826.1455399061033,-0.2939947149842903
197,206.6232558139535,826.2651162790697,-0.32586023340456216
198,207.41545893719808,826.6618357487923,-0.3531582893608059
199,208.231884057971,827.3526570048309,-0.3914550684108916
200,209.3219512195122,828.6487804878049,-0.4230043496576249
201,209.95073891625617,828.9162561576354,-0.4751481887201053
202,210.81720430107526,829.8494623655914,-0.5406698080859702
203,211.71195652173913,830.6413043478261,-0.6098906956228163
204,212.66477272727275,831.9488636363636,-0.7061934498116734
205,213.54696132596683,833.1381215469613,-0.7932960467873621
206,214.56983240223462,834.6145251396648,-1.023871383684153
207,215.5026178010471,835.7643979057592,1.5536760154809348
208,216.30434782608694,837.4184782608695,0.876723318219154
209,217.4153846153846,838.6,0.6811878174549283
210,218.53092783505156,839.7010309278351,0.5593043110938903
211,219.52153110047846,840.8133971291866,0.48926819314351205
212,220.48815165876778,841.7582938388625,0.4391812641050766
213,221.39269406392694,843.2328767123288,0.39560447650923214
214,222.5090909090909,844.0545454545454,0.3636731090660082
215,223.51709401709402,844.9059829059829,0.33909685553636193
216,224.53941908713693,846.1908713692947,0.29780439738114023
217,225.4,847.0125,0.27978356478742056
218,226.51440329218107,847.156378600823,0.25622598724396467
219,227.55319148936172,847.7148936170213,0.22562387155601615
220,228.78672985781992,847.4691943127962,0.2254561742946383
221,229.46360153256705,848.3103448275862,0.21342857262820694
222,230.46753246753246,849.3073593073593,0.19501719260856565
223,231.40963855421688,849.7389558232932,0.209186469941529
224,232.77927927927928,848.9144144144144,0.18332416268345308
225,233.71153846153845,848.7403846153846,0.1716677409008194
226,234.7461139896373,848.7616580310881,0.17317490627719098
227,237.53658536585365,837.6219512195122,0.1500099627893429
228,238.4,838.1666666666666,0.141374526989289
229,237.7361963190184,847.6871165644172,0.16936524552849083
230,240.27586206896552,839.0689655172414,0.14613255576615744
231,241.27848101265823,838.9620253164557,0.1661888094255112
232,241.4368932038835,842.5339805825242,0.18097817543475808
233,242.16379310344826,843.8103448275862,0.18844968912414747
234,243.05660377358492,843.9622641509434,0.1977997725259947
235,243.7029702970297,844.8811881188119,0.20883859689977505
236,244.31531531531533,846.5945945945946,0.22383064685053816
237,245.14953271028037,846.5327102803739,0.23620063268167882
238,246.16,846.25,0.2633026087519782
239,246.7710843373494,846.5542168674699,0.2560901766050083
240,247.4935064935065,846.8961038961039,0.3135539076001394
241,248.43023255813955,846.2790697674418,0.216400612180249
242,249.39080459770116,845.5862068965517,0.09213560873188557
243,250.16494845360825,844.8247422680413,-0.08473356275440606
244,250.8653846153846,844.2884615384615,-0.2030142642245863
245,252.01960784313724,844.2058823529412,-0.17176035576543805
246,252.64655172413794,843.4741379310344,-0.15270943928246072
247,253.67716535433073,843.5669291338583,-0.13928713960175132
248,254.51694915254237,843.3135593220339,-0.1268068058123841
249,255.16083916083915,842.0979020979021,-0.14347063690698586
250,256.1714285714286,842.6285714285714,-0.14440640578053562
251,256.96753246753246,842.2402597402597,-0.11683143929488965
252,257.8773006134969,842.8773006134969,-0.11838344506928768
253,258.69135802469134,843.0925925925926,-0.1112411135707739
254,259.51162790697674,843.1569767441861,-0.11145436451203435
255,260.45859872611464,843.687898089172,-0.11882092302010937
256,261.15168539325845,843.0,-0.10609769469778939
257,262.0817610062893,843.9622641509434,-0.11449582828820619
258,262.95953757225436,844.7514450867052,-0.10637871652074045
259,263.7484662576687,845.1349693251534,-0.11172147036972342
260,264.50931677018633,845.3354037267081,-0.11715302869994955
261,265.3354838709677,846.0709677419355,-0.11754001783558618
262,266.0,846.4024390243902,-0.12930562721189898
263,266.8553459119497,846.7295597484276,-0.1420420747010764
264,267.3854748603352,845.7709497206704,-0.1377667039585061
265,268.30128205128204,846.8205128205128,-0.14348962580564742
266,268.9594594594595,846.3716216216217,-0.15702182083480395
267,269.6685393258427,845.5449438202247,-0.16338342725465405
268,270.3485714285714,846.0857142857143,-0.17049300659803857
269,271.1395348837209,846.7209302325582,-0.17930894857387303
270,271.8648648648649,847.0,-0.2133937920809866
271,272.60897435897436,847.3589743589744,-0.24172842282532273
272,273.30674846625766,848.0122699386503,-0.26672131796403786
273,274.02027027027026,848.5878378378378,-0.2894567499938038
274,274.8181818181818,850.1818181818182,-0.34510685102751654
275,275.32624113475174,850.4609929078014,-0.4247525391479793
276,275.82307692307694,851.5769230769231,-0.42432495187358016
277,276.70866141732284,853.4803149606299,-0.1574024346360423
278,277.5833333333333,854.5454545454545,0.2182867911152268
279,278.3884892086331,855.8273381294964,0.3083595117200024
280,279.2846153846154,857.2076923076924,0.40396109528300655
281,279.97350993377484,858.384105960265,0.4102852066654714
282,280.52287581699346,859.5751633986928,0.36392884260074565
283,281.3719512195122,860.4817073170732,0.3241804266128031
284,282.3292682926829,861.2073170731708,0.3039034039442234
285,282.88757396449705,862.6627218934912,0.2664317780514111
286,283.814606741573,863.0730337078652,0.2655600258497064
287,284.8787878787879,862.9515151515152,0.24773396413561963
288,285.2105263157895,864.9105263157894,0.2365495359957303
289,286.0977011494253,865.0689655172414,0.22631259501562206
290,286.86734693877554,865.0204081632653,0.22005703130892348
291,287.84263959390864,864.9238578680203,0.20246915855924885
292,290.86842105263156,854.921052631579,0.21802212524016873
293,289.8679245283019,863.3962264150944,0.21332546639104022
294,290.81437125748505,863.1497005988024,0.20283188201280097
295,292.875,856.7083333333334,0.19046485921783549
296,293.91208791208794,855.6593406593406,0.19926547889967278
297,293.075,863.56875,0.21354887955089666
298,294.0301204819277,863.1385542168675,0.21961559173284753
299,294.8156028368794,862.7021276595744,0.21918828917072655
300,295.45390070921985,862.886524822695,0.23020127927087095
301,296.2266666666667,863.44,0.23582477290957643
302,296.76223776223776,864.0559440559441,0.2517779064149516
303,297.46478873239437,864.4647887323944,0.24798630423876272
304,297.9172413793103,865.6689655172414,0.2571276774427002
305,298.5611510791367,865.9784172661871,0.2675683043160595
306,299.31111111111113,866.0,0.27927603862993833
307,300.0526315789474,866.0075187969925,0.31259760263854786
308,300.71875,865.8515625,0.34641836962431655
309,301.2260869565217,865.7391304347826,0.3684189896509937
310,302.1071428571429,865.5714285714286,0.3997827499927034
311,302.87735849056605,864.6603773584906,0.4054472208897615
312,303.6039603960396,864.4059405940594,0.2922927823920482
313,304.4867256637168,863.6194690265487,-0.02208759677484605
314,305.5140186915888,862.5420560747664,-0.15181127647652018
315,306.1475409836066,862.0983606557377,-0.2085048034949255
316,306.8671875,861.2265625,-0.1556935900509291
317,307.4812030075188,860.8195488721805,-0.13916190305851983
318,308.125,860.2368421052631,-0.16515033194720952
319,309.1111111111111,860.2986111111111,-0.1406588015676483
320,309.83916083916085,859.7062937062938,-0.11557108437524183
321,310.65584415584414,859.9545454545455,-0.09751277124362115
322,311.4325842696629,859.1404494382023,-0.08398146300713244
323,312.4277777777778,859.8944444444444,-0.09732933295533747
324,312.9623655913979,858.9784946236559,-0.049396484452750467
325,313.48387096774195,858.8548387096774,-0.044905953515657876
326,314.45251396648047,860.072625698324,-0.052470673424086844
327,315.3414634146342,861.2560975609756,-0.05506740511024569
328,315.8707865168539,860.5955056179776,-0.03265930853808648
329,316.68617021276594,859.8351063829787,-0.025528693668078205
330,317.4493670886076,862.7405063291139,-0.045534438743431695
331,318.0,862.4897959183673,-0.0298762701864211
332,318.7771739130435,862.0489130434783,-0.023958226369111258
333,319.682119205298,864.8278145695365,-0.029924315424315003
334,319.9591836734694,865.2721088435374,-0.03981802422537908
335,320.75167785234896,865.3557046979865,-0.024787993168019738
336,321.6106870229008,866.1832061068702,-0.05354550950403526
337,321.90697674418607,865.4651162790698,-0.037443806086598516
338,322.77272727272725,866.4318181818182,-0.033167125345808096
339,323.587786259542,865.4045801526718,-0.045972698448686795
340,324.144,865.232,-0.05244365072202934
341,324.68992248062017,865.2015503875969,-0.0557006799900563
342,325.5272727272727,866.8818181818182,-0.10328667997080368
343,326.12389380530976,867.2654867256638,-0.13493265099114174
344,326.6666666666667,867.3809523809524,-0.14430835085389576
345,327.2371134020618,868.2577319587629,-0.11218573088380222
346,327.94117647058823,868.8529411764706,-0.1087598791712698
347,328.66279069767444,870.5116279069767,-0.06616427556658848
348,329.13483146067415,871.7752808988764,0.08222611805908353
349,329.6904761904762,873.1666666666666,0.2154812192708974
350,330.2127659574468,874.0744680851064,0.30187179208584136
351,330.93684210526317,874.5578947368421,0.319436648817519
352,331.36538461538464,876.0480769230769,0.26616339916966264
353,332.1171171171171,876.5045045045046,0.29731480805918137
354,332.6796875,877.6484375,0.28983485623663563
355,333.5508474576271,877.3389830508474,0.26699381432244734
356,334.140350877193,877.8245614035088,0.2437668452394677
357,336.4366197183099,872.338028169014,0.18103627855918125
358,337.15116279069764,872.3488372093024,0.2516531563836646
359,337.1666666666667,874.9444444444445,0.23340409621494973
360,337.7641509433962,874.9433962264151,0.22371072228252076
361,338.1679389312977,876.6106870229007,0.22016882337195146
362,338.1307189542484,879.9281045751634,0.23974230155626605
363,339.0337837837838,878.9121621621622,0.2394805597651117
364,339.38922155688624,880.311377245509,0.2434672537663535
365,340.3790849673203,879.156862745098,0.24657180392541725
366,340.71974522292993,880.5923566878981,0.25225834940430086
367,341.4235294117647,880.8235294117648,0.25902435013396413
368,341.7637362637363,882.1263736263736,0.2556456251361613
369,342.4235294117647,881.8117647058823,0.2697135158911904
370,342.57286432160805,884.070351758794,0.2669061473187684
371,343.79289940828403,881.9585798816568,0.288501693155816
372,344.08620689655174,883.2931034482758,0.2876710952973437
373,344.9005847953216,882.561403508772,0.3037925393426295
374,345.1222222222222,883.8555555555556,0.3130967835389921
375,345.9345238095238,883.1428571428571,0.3236777177087954
