FrameNo,Row,Column,Angle
50,8.627659574468085,757.9893617021277,0.5276180484873014
51,9.963350785340314,757.2146596858639,0.48427337102192264
52,12.01123595505618,756.1573033707865,0.4491354907595931
53,13.971698113207546,755.6320754716982,0.4107382587914015
54,15.821428571428571,754.8080357142857,0.3642027557238686
55,17.459227467811157,755.0171673819742,0.3484316008244995
56,19.480198019801982,754.1435643564356,0.3036750620256683
57,21.13095238095238,753.5039682539682,0.27198130485316463
58,22.90688259109312,753.408906882591,0.2564831653318918
59,24.78988326848249,753.2801556420234,0.21610233826391634
60,26.3375,752.2791666666667,0.18770563713454003
61,28.615384615384617,751.7362637362637,0.15882560655257377
62,30.02112676056338,750.9683098591549,0.13993729291183146
63,31.608843537414966,751.4047619047619,0.11831791359570246
64,33.478599221789885,750.1750972762646,0.07768185982720316
65,35.09933774834437,750.7185430463576,0.054431650809886
66,37.07361963190184,749.4969325153374,0.02918341385971898
67,38.46768060836502,749.6692015209126,-0.0016925266157761596
68,40.25082508250825,749.5577557755776,-0.039208417691755836
69,41.81481481481482,748.4983164983165,-0.051090337102400296
70,43.613821138211385,748.7642276422764,-0.0815489570435875
71,45.21376811594203,749.0398550724638,-0.08698743754900283
72,47.08097165991903,749.2024291497976,-0.13116628293240726
73,48.83259911894273,749.4493392070484,-0.16214245509202393
74,50.74418604651163,750.586046511628,-0.1890394988107397
75,52.55450236966825,750.5497630331754,-0.2181436099570271
76,54.316017316017316,750.3463203463203,-0.24052623244097035
77,56.34615384615385,751.4835164835165,-0.2831532181469361
78,58.33734939759036,751.8072289156627,-0.3176849362269555
79,59.284444444444446,749.4666666666667,-0.34949079579192843
80,59.97379912663755,747.6768558951965,-0.3784182803343379
81,61.81967213114754,747.2786885245902,-0.4287173596600544
82,63.22222222222222,747.1919191919192,-0.44897316363320844
83,64.5925925925926,746.6944444444445,-0.48831514654961106
84,65.65625,745.7901785714286,-0.5275911976988236
85,67.13309352517986,746.0179856115108,-0.5598209319166043
86,68.33807829181495,745.508896797153,-0.6087153869815819
87,70.07667731629392,745.9680511182108,-0.6545617503888673
88,71.23717948717949,745.7307692307693,-0.7056878893476506
89,73.21100917431193,746.039755351682,-0.744731871491342
90,74.24404761904762,745.639880952381,-0.806767906647517
91,75.94955489614243,746.4094955489614,-0.8585252606826319
92,77.34571428571428,746.6142857142858,-0.9236092405640313
93,79.10326086956522,747.0760869565217,-0.9914508452863072
94,80.79946524064171,747.4625668449198,-1.0430185895508564
95,81.95800524934383,747.748031496063,-1.1246496628854112
96,84.24173027989822,748.4045801526718,-1.2160343898445471
97,85.43358395989975,748.8646616541354,-1.2732438065838723
98,87.8444976076555,749.61004784689,-1.380525465561466
99,89.05727923627686,750.0477326968974,-1.4407459564539653
100,91.71296296296296,751.2037037037037,-1.5597594491968316
101,92.64814814814815,751.4884259259259,1.534066999484273
102,95.26112759643917,752.3471810089021,1.4228514989172738
103,97.28402366863905,752.9171597633136,1.3435024384029848
104,98.83195592286502,753.5289256198347,1.2602668454005188
105,101.3323782234957,753.9512893982808,1.1821958733302362
106,102.69806094182826,754.7617728531856,1.1245049422239404
107,105.14488636363636,755.0482954545455,1.0473994689771233
108,107.48255813953489,755.3372093023256,0.9797681819970605
109,109.54,755.7,0.9227745201300946
110,111.54492753623188,756.0985507246377,0.8605088009407015
111,113.17248908296943,756.6331877729258,0.829456936319771
112,114.98249452954047,757.3260393873086,0.7684166106698539
113,116.98430493273543,757.7668161434977,0.7333769766703059
114,119.32385120350109,757.6148796498906,0.6800906455420981
115,121.52455357142857,757.9910714285714,0.6471452104733348
116,123.66230936819171,757.9128540305011,0.59533499285245
117,125.65747126436781,758.2781609195403,0.5593632552077228
118,128.05,758.175,0.5312937568145168
119,130.3869463869464,757.8927738927739,0.5078328136965727
120,132.12470023980813,758.6115107913669,0.4791954520420282
121,134.30750605326875,758.5811138014528,0.4528267657675148
122,136.31683168316832,757.8935643564356,0.42564309022094193
123,138.54947916666669,758.1276041666666,0.39172009207506125
124,140.54232804232805,757.9973544973545,0.3792349838840604
125,143.0742705570292,756.9151193633952,0.352568121423961
126,144.89265536723164,756.9435028248588,0.33809602078617734
127,147.09295774647887,756.656338028169,0.30189016623854564
128,148.98809523809524,756.0208333333334,0.28760598239358987
129,151.04375,755.7625,0.2701258440761102
130,152.8245033112583,755.7715231788079,0.25797267675617364
131,154.9606557377049,754.944262295082,0.24213606063217413
132,157.10526315789474,753.6947368421053,0.2296392747732919
133,159.17424242424244,753.4242424242424,0.20381769194825636
134,161.0612244897959,753.0040816326531,0.18327236543473752
135,162.9035087719298,751.5921052631579,0.16851371724424605
136,164.91666666666669,750.9342105263158,0.174400641092932
137,166.91666666666669,749.1742424242424,0.13630135475093288
138,168.61842105263156,749.5592105263158,0.1288270379009193
139,170.39877300613497,749.0552147239264,0.10426419965659231
140,172.14754098360658,748.2131147540983,0.1308978585411393
141,174.61818181818182,743.2363636363636,-0.01917704535027756
142,175.7922077922078,746.0649350649351,0.08553869971541919
143,177.8913043478261,742.3478260869565,0.38268151869317113
144,179.29166666666669,744.125,0.1745076743670144
145,181.13513513513513,742.6756756756756,0.38233729362718943
146,182.70212765957447,742.7021276595744,0.33879218777417885
147,184.62,741.78,0.4248185694193691
148,186.75409836065575,740.8032786885246,0.3619504468810838
149,188.44303797468353,739.632911392405,0.250329021184885
150,190.0769230769231,739.1923076923077,0.13919192890237783
151,191.78571428571428,738.3452380952381,0.11925677607603079
152,193.38059701492537,737.5298507462686,0.054674796848984276
153,194.88073394495413,737.2477064220184,0.08353421910804074
154,196.375,736.15625,0.03082948599205215
155,198.20567375886526,735.2340425531914,-0.015564357950846557
156,199.74647887323943,734.3169014084507,-0.031219818830402986
157,201.14012738853503,734.2611464968153,-0.03672597300328311
158,202.67721518987344,734.0506329113924,-0.06197432039281597
159,204.36410256410255,732.8102564102564,-0.10371810667855343
160,205.874251497006,733.5149700598803,-0.10114198829051899
161,207.19767441860466,732.5174418604652,-0.10153331529856478
162,208.77966101694915,731.2542372881356,-0.13515031593419208
163,210.34857142857143,732.52,-0.1412175981036036
164,211.81132075471697,732.0251572327044,-0.1593074189099754
165,213.4431137724551,732.1676646706587,-0.1717463654099127
166,214.36263736263737,729.467032967033,-0.20239868696542423
167,216.0391061452514,730.6424581005587,-0.20760731716640296
168,217.71264367816093,730.8793103448276,-0.231798472126945
169,219.64,731.928,-0.25105757074485907
170,219.8062827225131,727.3141361256545,-0.26589740890704416
171,221.0721649484536,726.4536082474227,-0.2890750757371133
172,222.2871287128713,726.1435643564356,-0.304325256438749
173,223.61306532663315,725.7386934673367,-0.33195475235930905
174,224.84410646387835,725.4524714828897,-0.36857436849259256
175,225.45703125,723.78515625,-0.38889158618293607
176,227.14912280701753,724.5570175438596,-0.41396338959838136
177,228.64788732394368,724.6795774647887,-0.46239012262612794
178,229.85611510791367,724.7913669064749,-0.4929075523231637
179,230.95075757575756,724.6060606060606,-0.5293117171600924
180,232.4964539007092,725.3014184397164,-0.5756999193556204
181,233.58156028368796,725.4397163120567,-0.6433133645958541
182,235.40441176470588,726.1727941176471,-0.6907075062484005
183,236.7902097902098,726.7937062937062,-0.7820636089642233
184,237.88732394366195,726.8485915492957,-0.841046504949568
185,239.50541516245488,727.6209386281588,-0.9632381857045633
186,240.65232974910396,728.3333333333334,-1.064884427783679
187,242.27797833935017,728.7725631768953,-1.269297155919353
188,243.4856115107914,729.794964028777,-1.401769653125959
189,245.32871972318338,730.5743944636678,1.5249200336180868
190,247.14634146341461,731.3763066202091,1.2538034883468858
191,248.69333333333333,732.15,1.0546487213189593
192,250.39333333333332,732.9133333333333,0.9551647717186078
193,251.8402555910543,733.8115015974441,0.8167977674931024
194,253.65594855305466,733.9485530546624,0.7424288302739928
195,255.18296529968455,734.9652996845426,0.6444809767193118
196,257.7442528735632,734.4425287356322,0.5985361156198226
197,258.7694610778443,735.4401197604791,0.5456684265909776
198,260.25,735.7259036144578,0.49303228604105426
199,262.1168091168091,736.0512820512821,0.4564676232730504
200,263.7161716171617,736.3333333333334,0.4013206228171615
201,265.3899721448468,736.158774373259,0.3762149767061675
202,266.92351274787535,736.6033994334277,0.3458991249017431
203,268.76488095238096,736.2589285714286,0.3299446666323146
204,270.4867256637168,736.0855457227138,0.28987377257312713
205,271.86567164179104,736.176119402985,0.2820155900150337
206,273.43343653250776,736.1671826625387,0.26706132262218824
207,275.2233676975945,735.487972508591,0.23996405741701082
208,276.7765567765568,735.2783882783883,0.23663031214497848
209,278.3458646616541,734.8721804511279,0.21047296027516812
210,279.75694444444446,734.3402777777778,0.18656196994998003
211,281.3127572016461,734.3333333333334,0.1897956784316196
212,283.2857142857143,732.15,0.16768951902740642
213,284.5458515283843,732.5109170305677,0.18477646265314143
214,286.14009661835746,732.0386473429952,0.17208243940549045
215,287.80526315789473,730.8052631578947,0.16890796457641244
216,289.2696629213483,729.8539325842696,0.1613778891917019
217,290.6901408450704,729.0,0.15509075037903575
218,292.1322314049587,727.5454545454545,0.15522173191289004
219,293.45283018867923,726.9528301886793,0.15381140587547967
220,295.1011235955056,724.9101123595506,0.17394348497773035
221,296.52173913043475,723.8985507246377,0.1742290160434165
222,297.91525423728814,723.7627118644068,0.20176515336478415
223,299.0923076923077,723.9384615384615,0.23765569429830566
224,300.5483870967742,723.9193548387096,0.287441745282272
225,301.73846153846154,723.1076923076923,0.2853876259200658
226,303.234375,721.484375,0.19479262772990094
227,304.60493827160496,719.9876543209876,0.09631493288156193
228,305.94505494505495,718.8241758241759,-0.01305606896498454
229,307.05102040816325,717.704081632653,-0.10676536864100672
230,308.5420560747664,717.0,-0.1650143690374712
231,309.8347107438017,716.1652892561983,-0.15826111134533094
232,310.928,715.056,-0.15252342774054653
233,312.3712121212121,714.4545454545455,-0.1761573126270597
234,313.59285714285716,713.5,-0.1688696217540888
235,314.95977011494256,712.2528735632184,-0.17067058706470162
236,315.9875,712.79375,-0.17305552658831547
237,317.4551282051282,712.5769230769231,-0.16753585536612334
238,318.6754966887417,712.476821192053,-0.16607813182804948
239,319.57738095238096,710.9345238095239,-0.18631257795321848
240,321.09554140127386,711.7770700636943,-0.18389765677545908
241,322.3006993006993,711.7482517482517,-0.19686863669316837
242,323.44594594594594,710.8716216216217,-0.20410222733641278
243,324.1377245508982,708.8443113772455,-0.2098365237229656
244,325.27868852459017,707.9617486338798,-0.22680125362042208
245,326.33684210526314,707.578947368421,-0.23363442040247376
246,327.25,706.5064102564103,-0.2503117311047804
247,328.27868852459017,705.8196721311475,-0.26189850683585636
248,329.2319587628866,705.1958762886597,-0.26685422563430866
249,329.8731707317073,703.7853658536585,-0.29181868561569974
250,330.8075117370892,703.8028169014085,-0.3083315185410088
251,332.26960784313724,704.5,-0.3271788543876965
252,333.34199134199133,704.1341991341991,-0.3659150307558638
253,333.9,703.6625,-0.378322293412429
254,335.17131474103587,703.99203187251,-0.42311374032630944
255,336.53877551020406,705.0775510204081,-0.4643523497646436
256,337.2079646017699,705.1769911504425,-0.5139520397443674
257,338.5064935064935,705.8311688311688,-0.5576168250692936
258,339.1818181818182,706.0272727272727,-0.6430589847371581
259,339.7675438596491,707.0438596491229,-0.7622906174579328
260,341.8888888888889,708.0579710144928,-0.8407649054131069
261,342.82296650717706,708.7846889952153,-0.9642143946015472
262,344.35981308411215,709.8317757009346,-1.3037746793339244
263,345.57798165137615,710.7110091743119,1.354332123948279
264,346.7782805429864,711.8054298642534,0.9049453267561086
265,348.070796460177,712.6238938053098,0.7538718692708576
266,349.27896995708153,713.6523605150214,0.5892729844950068
267,350.6512605042017,713.9579831932773,0.5394139572169978
268,351.87951807228916,715.144578313253,0.47149219945150034
269,353.87548638132296,714.4280155642024,0.4245407951524886
270,354.6,715.7148936170213,0.3718401578704483
271,355.7975708502024,716.2753036437247,0.32912738427538063
272,357.21660649819495,716.0072202166065,0.3219290210178327
273,358.5622641509434,716.1735849056604,0.27789121388459725
274,359.70353982300884,716.287610619469,0.24897583918911356
275,361.0,716.117903930131,0.23598524685576092
276,362.33193277310926,715.90756302521,0.2179395904471987
277,363.6183574879227,715.304347826087,0.19961664648286434
278,364.721568627451,716.0941176470589,0.18949342875984984
279,366.2488038277512,714.2822966507177,0.1751708149903457
280,367.25396825396825,714.3650793650794,0.1551639970483503
281,368.54545454545456,712.9772727272727,0.148841887632655
282,369.524064171123,713.1871657754011,0.12175251721937479
283,370.92215568862275,711.4910179640718,0.12635281275116636
284,372.14,710.2533333333333,0.13691488260191084
285,373.50344827586207,708.5172413793103,0.12494241743142702
286,374.68333333333334,706.975,0.10689904800556291
287,375.47008547008545,707.5641025641025,0.1255431439511681
288,376.8541666666667,706.40625,0.1354622416158902
289,377.64835164835165,706.6923076923077,0.12878379355364522
290,378.5238095238095,707.047619047619,0.13755812116908317
291,379.6395348837209,707.4069767441861,0.14828264729007617
292,380.6179775280899,706.8539325842696,0.17105372733712826
293,381.3048780487805,706.9024390243902,0.17855377833387806
294,382.48809523809524,705.6904761904761,0.18824646184142474
295,383.4657534246575,704.6986301369863,0.22086218815455655
296,384.6075949367089,702.8101265822785,0.2228109188531869
297,385.625,701.3181818181818,-0.00646083244612817
298,386.4,700.1800000000001,-0.11143443514617278
299,387.5104166666667,698.7916666666666,-0.2872301943979666
300,388.7378640776699,697.9417475728155,-0.23934825588595782
301,389.41818181818184,696.9181818181818,-0.24809839880289514
302,390.3985507246377,695.7971014492754,-0.24245283301119244
303,391.3965517241379,695.198275862069,-0.22389808749454979
304,392.3953488372093,694.8527131782946,-0.22356302344262086
305,393.4186046511628,694.3100775193799,-0.21764835891845652
306,394.609022556391,694.1278195488721,-0.21021252842598506
307,395.52592592592595,693.7185185185185,-0.2111676578921725
308,396.503937007874,694.0551181102362,-0.2134905868359635
309,396.99337748344374,691.7682119205298,-0.22161832891675654
310,397.7870967741935,691.1612903225806,-0.21899783290042169
311,398.6322580645161,690.6064516129032,-0.21784898058746527
312,399.58125,690.36875,-0.22366979456402825
313,400.4026845637584,689.9597315436241,-0.2252824199704861
314,400.9655172413793,688.264367816092,-0.23503742178129516
315,401.7267441860465,687.3546511627907,-0.24013277742568895
316,402.4395604395604,686.8186813186813,-0.24967994351207626
317,403.2988505747127,686.8735632183908,-0.2590712098482157
318,403.96216216216214,686.1135135135135,-0.265081660630932
319,404.90308370044056,685.9118942731277,-0.27946132217124453
320,405.43715846994536,685.3224043715848,-0.29275909000830197
321,406.4186046511628,684.8883720930232,-0.3118645651731194
322,407.3864734299517,686.2415458937198,-0.3356639306490887
323,408.48826291079814,686.8544600938967,-0.34856111440972626
324,409.1871921182266,686.9162561576354,-0.38710402727587745
325,409.6544502617801,686.6806282722513,-0.41732973842594784
326,410.8793969849246,687.3417085427136,-0.45276072990391475
327,411.764367816092,688.3908045977012,-0.4685810106189183
328,412.4450867052023,688.7572254335261,-0.5500558452463875
329,413.2049689440994,689.6708074534162,-0.6828938492403636
330,414.44375,690.6,-0.7573507690188788
331,415.4096385542169,692.2469879518072,-0.49485089006117505
332,416.4746835443038,693.0569620253165,0.512066517861979
333,417.4561403508772,693.9415204678362,0.5240508640008171
334,419.04117647058825,694.4764705882353,0.42258049165556
335,419.78735632183907,694.9885057471264,0.33701246684079966
336,420.88950276243094,695.939226519337,0.3283848135429517
337,421.93650793650795,696.2063492063492,0.3070286655035301
338,423.08415841584156,696.7227722772277,0.2423014979364689
339,423.88532110091745,696.9724770642201,0.20194567312281292
340,424.8604651162791,697.2976744186046,0.1705115958796379
341,425.9567901234568,697.141975308642,0.15253887029656385
342,426.9550561797753,696.8202247191011,0.13429199648559703
343,428.1193181818182,696.125,0.12174370626588364
344,429.0225988700565,696.271186440678,0.10088108781899047
345,430.0292397660819,696.1637426900585,0.08907138165384842
346,430.8627450980392,695.1437908496732,0.0759731021182109
347,431.90140845070425,693.7816901408451,0.06327825160812295
348,432.9698795180723,693.1686746987951,0.07170177048975497
349,433.44444444444446,693.1666666666666,0.05360344718733199
350,434.5578231292517,692.8639455782313,0.058958448602959325
351,435.24590163934425,691.5819672131147,0.03929405848009717
352,436.1186440677966,691.3813559322034,0.04830709986373388
353,437.0081300813008,691.6747967479674,0.04882141489743221
354,437.9017857142857,690.6964285714286,0.059191919876361195
355,438.5689655172414,692.3706896551724,0.057391025745015624
356,439.3451327433628,691.3362831858407,0.04345090741520163
357,440.1570247933884,691.4214876033058,0.042702595112567895
358,441.0692307692308,692.2769230769231,0.05814236180957189
359,441.5840707964602,692.2743362831859,0.08963808748924977
360,442.41346153846155,690.4519230769231,0.10789289878265707
361,443.2710280373832,690.3831775700935,0.10456838953146001
362,443.7294117647059,689.0823529411765,0.12560042186355622
363,444.3544303797468,687.9873417721519,0.14227294686181843
364,445.1578947368421,686.5263157894736,0.12509471904585603
365,445.88461538461536,684.5769230769231,0.04538101786217182
366,446.59550561797755,683.4269662921348,-0.17349594509066288
367,447.58,682.17,-0.3432142981062288
368,448.0550458715596,680.651376146789,-0.3288542757737032
369,449.20175438596493,680.5,-0.3568933210332482
370,449.8407079646018,679.2389380530974,-0.323581893699872
371,450.35433070866145,678.4724409448819,-0.3064650594907939
372,451.4553571428571,678.6339285714286,-0.28473780527046383
373,451.99270072992704,677.6934306569343,-0.27420780924513727
374,452.8181818181818,677.0330578512396,-0.2620704911697514
375,453.5,676.6507936507936,-0.2649232371918178
376,453.8690476190476,675.2797619047619,-0.2660256456108496
377,455.16541353383457,676.6541353383459,-0.2538652954352826
378,455.0,673.3179487179488,-0.2523201970317524
379,456.3913043478261,675.3405797101449,-0.25923172483158197
380,456.5443037974684,672.8924050632911,-0.2562909343587821
381,457.58156028368796,673.7659574468086,-0.2617454253431147
382,457.989010989011,673.2857142857143,-0.2564195058275637
383,458.80405405405406,672.5067567567568,-0.2669150668112186
384,459.25,671.6346153846154,-0.2729505444834678
385,459.9,670.84375,-0.27428445041655286
386,460.525641025641,670.7115384615385,-0.2759592108786528
387,461.1363636363636,670.4675324675325,-0.28661810936147525
388,461.888198757764,670.1180124223603,-0.2984083156075713
389,462.26143790849676,669.4771241830065,-0.2999528192301512
390,462.9299363057325,669.6687898089172,-0.3132177965775553
