FrameNo,Row,Column,Angle
69,8.215384615384615,819.9,-1.3545228180608315
70,9.233333333333333,819.5666666666666,-1.5085226779878822
71,10.984536082474227,820.2422680412371,1.4408030999768688
72,12.625641025641025,820.748717948718,1.278417497657567
73,14.414893617021276,821.4095744680851,1.1096091563423114
74,16.192513368983956,822.1336898395722,0.9744614216628095
75,18.2,822.5589743589744,0.8709268861982555
76,19.36945812807882,823.3399014778325,0.8318052587753215
77,21.480582524271846,823.3446601941747,0.7613391454661442
78,23.02857142857143,824.2571428571429,0.7015376380885854
79,24.729857819905213,824.8151658767772,0.6479107765578883
80,26.566666666666666,825.3,0.6291804898010405
81,28.245454545454546,825.9545454545455,0.6073079013903118
82,29.76818181818182,826.5045454545455,0.5647694780530127
83,31.54054054054054,826.9009009009009,0.5413101631312529
84,33.36771300448431,827.3139013452915,0.5344847605927656
85,34.753191489361704,827.736170212766,0.5169026458427941
86,36.4410480349345,828.4934497816594,0.5043919829118687
87,38.06437768240343,828.6909871244635,0.486997682097534
88,39.7038626609442,829.3776824034335,0.4769689936660091
89,41.35564853556485,829.7698744769874,0.45112981356734344
90,43.016949152542374,830.0677966101695,0.4590476286850783
91,44.687763713080166,830.5738396624472,0.44735826821864466
92,46.64556962025316,830.3122362869199,0.43465758361111173
93,48.247899159663866,830.7352941176471,0.4330984767689747
94,49.705627705627705,831.1948051948052,0.42669107011047785
95,51.60084033613445,831.1302521008404,0.42283521745117086
96,52.98275862068966,831.9181034482758,0.42224587410809045
97,54.65384615384615,832.1682692307693,0.41757213050009134
98,56.34632034632035,832.0346320346321,0.41212951388219965
99,58.246231155778894,831.9396984924623,0.4140468514684944
100,59.669642857142854,832.4866071428571,0.41260916311783896
101,61.38461538461539,832.3031674208145,0.4155085544140547
102,62.93119266055046,832.7660550458716,0.41306839293414893
103,64.34871794871795,833.1794871794872,0.41464719832144237
104,66.11764705882354,833.048128342246,0.41518713069716684
105,68.0677966101695,832.5084745762712,0.4173865170677339
106,69.69662921348315,832.4494382022472,0.4201835219104445
107,71.19886363636364,832.5454545454545,0.4288127836705948
108,73.125,832.0,0.42755499075071274
109,74.92156862745098,831.6013071895425,0.4352553055172882
110,76.4311377245509,831.7245508982036,0.4356667359817131
111,77.82317073170732,832.2256097560976,0.4425116784580476
112,80.39370078740157,830.0551181102362,0.4514097946015111
113,85.22368421052632,823.2763157894736,0.47605823764242255
114,84.23529411764706,828.9264705882352,0.47515217458331194
115,86.79130434782608,826.9478260869565,0.4891749547146334
116,88.1559633027523,827.1651376146789,0.5008075641978103
117,89.64166666666667,827.2416666666667,0.5154143674739394
118,90.48062015503876,828.8682170542636,0.521711050702188
119,91.29629629629629,830.0962962962963,0.5290856466339915
120,94.39,827.21,0.5519093843859693
121,93.96899224806202,830.5503875968992,0.5584778034615376
122,95.44444444444444,830.6797385620915,0.5849765719185199
123,97.0375,830.46875,0.6095593024492094
124,98.09815950920246,830.6871165644172,0.6472015742072235
125,100.0,830.2699386503067,0.6542031020163439
126,101.09740259740259,830.525974025974,0.6916762124027563
127,102.99397590361446,829.933734939759,0.7298469056909423
128,104.34319526627219,829.8994082840237,0.773244769107391
129,106.11515151515151,829.3272727272728,0.798939791321251
130,107.36158192090396,829.2429378531074,0.8573479673341606
131,108.94318181818181,828.9204545454545,0.9053740959375193
132,110.21714285714286,828.5828571428572,0.9838923776820411
133,111.94350282485875,828.1242937853108,1.0647867380857157
134,113.29213483146067,827.6797752808989,1.1421807221354696
135,115.16042780748663,826.9786096256685,1.2407450579496024
136,116.4559585492228,826.5388601036269,1.3701860481242507
137,118.09278350515464,825.8969072164948,1.5076029400183162
138,119.78282828282828,825.4141414141415,-1.406742524062089
139,121.16746411483254,824.6985645933014,-1.2376072018962487
140,123.0,824.1818181818182,-1.0214840487359453
141,124.52093023255814,823.539534883721,-0.8581953924450496
142,126.06818181818181,823.0454545454545,-0.7719603042420069
143,127.7051282051282,822.5384615384615,-0.6849881003457235
144,129.38766519823787,821.9295154185022,-0.6068513228527352
145,131.18333333333334,821.2916666666666,-0.5516998316605363
146,132.39370078740157,820.7952755905512,-0.5160787717935015
147,134.39442231075697,820.6772908366534,-0.46683185257231696
148,136.01606425702812,819.9678714859438,-0.4254395215795905
149,137.44787644787647,819.3861003861003,-0.377406500479364
150,139.19379844961242,819.031007751938,-0.36555220380142106
151,140.75187969924812,818.7330827067669,-0.3403569451801247
152,142.4367816091954,818.3371647509579,-0.31877437594739483
153,144.04924242424244,817.8295454545455,-0.30580569396875584
154,145.59328358208955,817.6305970149253,-0.2923891001078597
155,147.21167883211677,817.3029197080292,-0.27561679853892246
156,148.96727272727273,817.4945454545455,-0.25686007275940614
157,150.53136531365314,816.9298892988929,-0.24928630356480208
158,152.12773722627736,816.7883211678832,-0.23315789944245735
159,153.7816091954023,816.8888888888889,-0.22876048858553474
160,155.21011673151753,816.3501945525292,-0.22012965152442449
161,156.8300395256917,816.5691699604743,-0.21924465762741807
162,158.3688524590164,816.7704918032787,-0.21102122214888538
163,159.95180722891567,816.4698795180723,-0.209810013484799
164,161.6068376068376,816.8547008547008,-0.19327072698580605
165,163.15384615384616,817.1025641025641,-0.19593268209068013
166,164.625,816.9444444444445,-0.19492245891022927
167,166.2340425531915,817.6010638297872,-0.19057729171398918
168,167.79802955665025,818.0837438423646,-0.19344206843864453
169,169.4230769230769,818.434065934066,-0.19594791810895662
170,171.0670731707317,819.1951219512196,-0.19687239423784186
171,172.51785714285714,819.0357142857143,-0.19740583377570356
172,174.32592592592593,820.437037037037,-0.21194064041680008
173,178.0943396226415,831.0943396226415,-0.26563909224113263
174,179.327868852459,830.655737704918,-0.24097966740805787
175,181.0188679245283,830.9622641509434,-0.31473061058380053
176,182.3673469387755,830.6734693877551,-0.302602763642583
177,184.01923076923077,830.8076923076923,-0.2979383136036649
178,185.34615384615384,829.9615384615385,-0.2939705967873325
179,186.81034482758622,829.7068965517242,-0.33940773359495746
180,188.35849056603774,829.9056603773585,-0.2945280205982899
181,189.71428571428572,829.4285714285714,-0.37523224808365946
182,190.26086956521738,827.1304347826087,-0.3736238165579173
183,192.15686274509804,828.7254901960785,-0.39197677972312406
184,191.39473684210526,823.2894736842105,-0.4071218752882825
185,192.8608695652174,823.6347826086957,-0.45018301538816763
186,194.10526315789474,823.796992481203,-0.5041376987572552
187,195.46616541353382,824.4887218045112,-0.5340634198111351
188,196.60902255639098,824.7593984962406,-0.5948461347775629
189,198.0375939849624,825.3082706766918,-0.7046196415667557
190,199.30827067669173,825.9774436090225,-0.7199811117075563
191,200.63636363636363,826.3787878787879,-0.8653336934328193
192,201.9927536231884,827.1666666666666,-1.1928467652402688
193,203.12582781456953,827.9139072847682,1.2634784369015495
194,204.68,828.72,0.9267082601545031
195,206.0759493670886,829.5253164556962,0.7350578700715021
196,207.42857142857144,830.1490683229814,0.6549892582090794
197,208.67816091954023,831.235632183908,0.5783577064838783
198,210.28994082840237,831.5562130177515,0.53640806261809
199,211.52247191011236,832.2584269662922,0.4972188302189476
200,212.76756756756757,833.2432432432432,0.457744351606596
201,214.18421052631578,833.7105263157895,0.44487045538221187
202,215.73737373737373,834.060606060606,0.4219193203066605
203,217.0547263681592,834.7412935323383,0.4132874627679953
204,218.29951690821258,835.487922705314,0.3943095796572658
205,219.87264150943395,835.5377358490566,0.3743281500856467
206,221.0390243902439,836.380487804878,0.35974052471236895
207,222.53521126760563,836.3849765258216,0.35149124755201167
208,224.04017857142856,836.8258928571429,0.34901444743910065
209,225.32876712328766,837.2465753424658,0.3353173812005969
210,226.5601851851852,837.5648148148148,0.33444101131883835
211,228.075,837.785,0.32371780895505986
212,229.63819095477388,837.4020100502513,0.3179568901038857
213,230.96954314720813,837.9644670050761,0.31641368130104397
214,232.19417475728156,838.1650485436893,0.3084297638994029
215,233.52403846153845,838.5913461538462,0.30727131433684
216,234.984126984127,838.4179894179895,0.31067846484039846
217,236.24,838.835,0.3142176684709787
218,237.94219653179192,837.8843930635838,0.3106197691857708
219,239.33125,837.83125,0.3085995864498507
220,240.51461988304095,838.280701754386,0.3060896032683347
221,241.85029940119762,838.0958083832336,0.3139511048441544
222,243.87769784172662,836.2661870503597,0.31256456916918746
223,245.16083916083915,836.2097902097902,0.3158450812955797
224,247.49074074074076,833.0833333333334,0.32359060275742063
225,249.28235294117647,831.6,0.3268458513593716
226,250.73737373737373,831.0,0.34161101090109197
227,253.95652173913044,825.8260869565217,0.4064351710162809
228,254.8793103448276,827.051724137931,0.4201832006704228
229,254.86301369863014,830.0821917808219,0.39216765697146005
230,255.88505747126436,831.3103448275862,0.38559197571990994
231,255.80327868852459,834.4508196721312,0.41425752958188355
232,257.3805309734513,833.6637168141593,0.42361976720250594
233,258.456,833.768,0.4591268109126095
234,259.57851239669424,833.8181818181818,0.48925020641896977
235,260.9344262295082,833.2213114754098,0.5348453407641204
236,262.2809917355372,832.7851239669421,0.5770319061248099
237,263.6166666666667,831.9916666666667,0.6439089929767562
238,264.67543859649123,831.8947368421052,0.6808101939506099
239,266.0416666666667,831.0916666666667,0.7495396547921187
240,267.54761904761904,830.3174603174604,0.9162136412671349
241,268.6639344262295,829.7540983606557,0.39979452856600695
242,270.0077519379845,828.6124031007752,-0.472554292388796
243,271.31111111111113,828.0222222222222,-0.4466819493835258
244,272.63157894736844,827.2481203007519,-0.3998703168016669
245,274.2167832167832,826.6783216783217,-0.34728054698331584
246,275.5838926174497,825.9395973154362,-0.3240058545616313
247,276.8125,824.9652777777778,-0.28425372132979343
248,278.0674846625767,824.2453987730062,-0.2515738957624608
249,279.3975903614458,823.8132530120482,-0.24162864097906234
250,280.7857142857143,822.974025974026,-0.2227149044082074
251,282.0,822.2888888888889,-0.2126369494592403
252,283.38709677419354,821.9301075268818,-0.18720427630388253
253,284.7682926829268,821.810975609756,-0.18458366945719662
254,286.09392265193367,821.2983425414365,-0.1684271377105809
255,287.35449735449737,821.2592592592592,-0.16329462929582636
256,288.5333333333333,820.7944444444445,-0.15057540516786602
257,289.9382716049383,820.895061728395,-0.15891126242238426
258,291.21264367816093,820.5114942528736,-0.1535616318526255
259,292.48648648648646,820.4324324324324,-0.15332467471190475
260,293.7530864197531,820.820987654321,-0.14269332970435802
261,294.95454545454544,820.0909090909091,-0.14813169587280883
262,296.4879518072289,821.4156626506024,-0.14796197964115082
263,297.5149700598802,820.8203592814372,-0.16053172792450726
264,300.50847457627117,833.271186440678,-0.201999475631343
265,300.2597402597403,822.2402597402597,-0.1565805620834871
266,302.1619047619048,826.504761904762,-0.16094266498019538
267,304.49122807017545,833.5964912280701,-0.22616687334497731
268,305.6825396825397,833.0793650793651,-0.24720499214055908
269,307.2068965517241,833.8448275862069,-0.21738318298193293
270,308.3965517241379,833.3965517241379,-0.22473447000419206
271,309.59375,832.75,-0.26528915721367585
272,310.44444444444446,831.125,-0.25650840418357174
273,312.36,833.3199999999999,-0.2741846933427871
274,313.5531914893617,832.936170212766,-0.2899401142034006
275,314.75,832.3846153846154,-0.27202863830947355
276,315.62745098039215,831.7450980392157,-0.3265186200079192
277,316.056338028169,829.6901408450705,-0.3702043132485525
278,315.56637168141594,825.2654867256638,-0.3588199234375703
279,316.55555555555554,825.6203703703703,-0.40966944950286727
280,317.6639344262295,825.9262295081967,-0.4541211810231164
281,319.0451127819549,826.4285714285714,-0.5174503550560304
282,319.52713178294573,826.4031007751938,-0.5773093493822175
283,320.9117647058823,827.5588235294117,-0.7009573289982558
284,321.97727272727275,828.0454545454545,-0.7622225061291125
285,322.7,828.7214285714285,-0.9712780472490969
286,324.1958041958042,829.7482517482517,1.1731255627812813
287,325.21768707482994,830.5510204081633,0.8529492714894097
288,326.64666666666665,831.16,0.691966965629014
289,327.74050632911394,832.1075949367089,0.5781250621285212
290,328.88823529411764,832.9,0.5449103068349352
291,329.93333333333334,833.7636363636364,0.49732006753802727
292,331.1183431952663,834.5857988165681,0.4570636846186454
293,332.1141304347826,835.1739130434783,0.41100262571943164
294,333.2433862433862,836.0846560846561,0.38508223138101494
295,334.6051282051282,836.5230769230769,0.3549572230659669
296,335.555,837.325,0.3422325132223942
297,337.01015228426394,837.5532994923858,0.3280789373705085
298,338.1229946524064,837.855614973262,0.31421490942199964
299,339.4761904761905,838.1269841269841,0.30310910768330324
300,340.6089108910891,838.3465346534654,0.2875413546985125
301,341.77560975609754,838.7756097560975,0.2845001726982145
302,343.03398058252424,839.1504854368932,0.26862111845954423
303,344.2352941176471,839.096256684492,0.2533715162712136
304,345.4806629834254,839.0055248618785,0.24881306408991838
305,346.57865168539325,839.1348314606741,0.24473662842168303
306,347.7705882352941,839.2529411764706,0.241495112287586
307,349.0654761904762,839.1369047619048,0.23454770006211978
308,350.46043165467626,838.1223021582734,0.23249952206184119
309,351.1656050955414,839.5668789808917,0.22968519986677702
310,352.64473684210526,838.5065789473684,0.2353436411227943
311,354.02097902097904,837.9580419580419,0.22841117025065888
312,355.4016393442623,836.4180327868853,0.23094001117657448
313,356.6034482758621,835.7068965517242,0.23059511484815068
314,358.0103092783505,834.4020618556701,0.2221596947443743
315,360.14814814814815,829.2037037037037,0.24707785522496664
316,360.94666666666666,831.08,0.2566574399125289
317,362.2112676056338,830.6760563380282,0.2775715045559353
318,363.3285714285714,830.5571428571428,0.2722785129190827
319,365.0869565217391,827.8478260869565,0.27607762395270546
320,364.6707317073171,833.4878048780488,0.30287382982804273
321,365.5375,833.725,0.30997086353712894
322,366.56666666666666,833.5555555555555,0.34930537912746057
323,367.8076923076923,833.025641025641,0.35351823568077445
324,368.8148148148148,832.679012345679,0.40911836305239085
325,369.679012345679,832.4567901234568,0.43878008304364896
326,370.7882352941176,831.7647058823529,0.40474548760198076
327,371.7530864197531,830.7777777777778,0.30519371344210944
328,373.1098901098901,829.7802197802198,-0.1699464777608592
329,374.1046511627907,828.7906976744187,-0.1788912858171201
330,375.28,828.13,-0.2530282711989698
331,376.51,827.3,-0.2467288707593754
332,377.60526315789474,826.7894736842105,-0.20901166696782258
333,378.3879310344828,825.7413793103449,-0.18389065201810303
334,379.65116279069764,824.9069767441861,-0.1703236251735735
335,380.72093023255815,824.6589147286821,-0.16579538935160298
336,381.9504132231405,824.1322314049587,-0.15654812357458564
337,382.93798449612405,823.8372093023256,-0.13882831226695833
338,384.1338582677165,823.3149606299213,-0.13729095171271663
339,385.2844827586207,823.7155172413793,-0.14012832025566713
340,386.18461538461537,822.5153846153846,-0.13331192310780302
341,387.35433070866145,823.1102362204724,-0.1313834798033349
342,388.6228070175439,824.438596491228,-0.12499031730955827
343,389.55555555555554,823.9145299145299,-0.12693726672064418
344,391.72131147540983,832.672131147541,-0.1579631551322317
345,392.91379310344826,833.6724137931035,-0.1725781219810756
346,394.1071428571429,834.375,-0.1929070257028199
347,394.83561643835617,831.8356164383562,-0.17594086538641918
348,396.11267605633805,832.5492957746479,-0.19562502776571186
349,397.1538461538462,832.7692307692307,-0.19158719992309903
350,398.22388059701495,832.8358208955224,-0.2053134057560587
351,399.3114754098361,832.688524590164,-0.2399830697762457
352,400.5076923076923,832.9846153846154,-0.2546317769096696
353,401.74603174603175,833.5079365079365,-0.25352092345054844
354,400.94392523364485,825.9065420560747,-0.2065171376959479
355,401.6638655462185,824.2689075630252,-0.22655425840036647
356,403.02,826.2,-0.24399488993287555
357,403.4609375,824.3203125,-0.2605900673281072
358,404.1777777777778,823.7037037037037,-0.283955412458923
359,407.6981132075472,831.6981132075472,-0.3620916111767134
360,406.16279069767444,824.7519379844962,-0.3443401577009226
361,407.2230769230769,825.5692307692308,-0.3685033279809742
362,409.8412698412698,829.6349206349206,-0.5265103369284428
363,408.94444444444446,826.2142857142857,-0.4840328830776265
364,409.6393442622951,826.7950819672132,-0.5807951392207867
365,410.84000000000003,827.44,-0.5865332919883839
366,411.856,828.344,-0.7480997125078528
367,412.5511811023622,829.007874015748,-0.7931097047032525
368,413.3893129770992,829.9923664122138,0.7931000697548574
369,414.5486111111111,830.9722222222222,0.6068437777861605
370,415.45390070921985,831.8794326241135,0.5374981641100083
371,416.48979591836735,832.952380952381,0.48935685050323013
372,417.83125,833.3875,0.46373676081863496
373,418.7168674698795,834.2650602409639,0.38923966941667154
374,419.6904761904762,834.9761904761905,0.34634753446492894
375,420.6666666666667,835.8793103448276,0.3201134478590551
376,421.7714285714286,836.6628571428571,0.2923204137179137
377,422.8702702702703,836.9837837837838,0.2733218513662614
378,423.9259259259259,837.5873015873016,0.2627838554962462
379,424.84183673469386,838.0255102040817,0.24605235178904794
380,425.88829787234044,838.6063829787234,0.23423495739105468
381,427.0736842105263,838.4,0.21598249994566188
382,428.0777777777778,838.8,0.20862769514475657
383,429.01554404145077,838.8549222797927,0.1892708695510239
384,430.04945054945057,839.3186813186813,0.1900734140058497
385,431.045197740113,839.6214689265537,0.181109568745437
386,432.0621468926554,839.8361581920904,0.17857510519714798
387,433.20625,839.18125,0.16554349594675105
388,434.35333333333335,838.6533333333333,0.16135169807619468
389,435.36170212765956,838.468085106383,0.16023642029389729
390,436.49305555555554,837.6180555555555,0.1510991840037759
391,437.7443609022556,836.1954887218045,0.14901504035939547
392,439.09302325581393,833.1279069767442,0.1462610448481829
393,440.1182795698925,832.9247311827957,0.1453044932526968
394,441.34883720930236,831.0813953488372,0.14529418660732393
395,442.31944444444446,830.7361111111111,0.14927950573743004
396,443.55357142857144,828.6428571428571,0.1572550951875933
397,444.63829787234044,827.4468085106383,0.1790770061804803
398,445.59574468085106,827.7021276595744,0.23825219133243722
399,446.48648648648646,827.8648648648649,0.137645307380565
400,447.4468085106383,828.4255319148936,0.20529739647717632
401,448.3571428571429,828.8809523809524,0.24291040275574396
402,448.34482758620686,832.1896551724138,0.21504617968573161
403,449.3833333333333,831.5166666666667,0.2821099796586334
404,450.188679245283,831.5283018867924,0.27384275609347036
405,451.15999999999997,830.4,0.21405851771526804
406,452.0,829.6896551724138,0.09530621300948106
407,453.1746031746032,828.6825396825396,-0.14927599996576238
408,453.88732394366195,827.9154929577464,-0.17289734933858955
409,454.75,826.5119047619048,-0.18329728845098436
410,455.7317073170732,826.2439024390244,-0.14048194184318177
411,456.6823529411765,825.9529411764706,-0.160546876534964
