FrameNo,Row,Column,Angle
38,4.397590361445783,824.2048192771084,-0.22765457748598017
41,7.024647887323944,821.5176056338028,-0.21823324896295987
42,8.391472868217054,823.6937984496124,-0.31713215843998394
43,9.505190311418685,822.2283737024221,-0.2930880396227299
44,10.68135593220339,822.2508474576271,-0.292357834265815
45,12.066006600660065,823.2079207920792,-0.33195605514231324
46,12.968531468531468,823.5629370629371,-0.3842054414527618
47,14.444444444444445,823.7701149425287,-0.409913155288673
48,15.692307692307692,824.1904761904761,-0.44049278006564485
49,16.906896551724138,824.3896551724138,-0.4929841035584651
50,17.565371024734983,824.1660777385159,-0.5056970488979923
51,19.08,825.2654545454545,-0.6311344664599342
52,20.636690647482013,825.273381294964,-0.7316250204741408
53,21.320158102766797,825.4743083003953,-0.735932073571229
54,22.78988326848249,826.2217898832685,-0.9207329202161548
55,23.735632183908045,826.5210727969348,-1.0064580221500268
56,25.20967741935484,826.633064516129,-1.2440910642804284
57,26.510460251046027,826.8702928870293,-1.479945339538329
58,27.333333333333332,827.4341085271318,1.46873526385918
59,29.016129032258064,827.7903225806451,1.2409712442111673
60,30.18888888888889,827.9888888888889,1.060319504070685
61,30.967391304347824,828.4311594202899,1.028132553112767
62,32.07394366197183,829.4718309859155,0.8298736977921727
63,33.31468531468531,829.7832167832167,0.8089150451480959
64,34.222591362126245,830.2026578073089,0.7100588677799697
65,35.147239263803684,830.9907975460122,0.6609189335452569
66,36.417682926829265,831.1067073170732,0.6081378666129814
67,37.90962099125365,831.5889212827989,0.563089406772316
68,38.79250720461095,832.1815561959654,0.5135291380191824
69,40.038575667655785,832.620178041543,0.48518728147473394
70,41.25201072386059,832.8123324396782,0.4903151204742651
71,42.64804469273743,833.0111731843575,0.43639667140980337
72,43.434052757793765,834.1007194244604,0.3942872973921893
73,44.9023746701847,833.910290237467,0.3860942170457528
74,46.22,834.1375,0.35433970447437535
75,47.411910669975185,834.8660049627791,0.35721148287447485
76,48.77832512315271,834.6995073891626,0.32319385930926997
77,49.882198952879584,834.9476439790576,0.31834197111245954
78,50.94457831325301,835.5469879518072,0.3189306348483175
79,52.469907407407405,835.3842592592592,0.28371060347209387
80,53.38048780487805,835.8878048780488,0.2680479654519561
81,54.68721461187214,836.0821917808219,0.2731652090807903
82,56.09241706161137,835.9478672985782,0.24632617045090097
83,57.54252873563218,835.9701149425288,0.24622259967705443
84,58.79002624671916,835.6561679790026,0.24078025765970543
85,60.116550116550115,836.0675990675991,0.23294429496122115
86,61.292792792792795,835.8175675675676,0.23404633650070958
87,62.60048426150121,835.3753026634382,0.21343136052065104
88,63.937655860349125,835.5935162094763,0.1928442039707327
89,65.17142857142858,835.4103896103896,0.18468650329625616
90,66.22365038560412,836.2185089974294,0.18278211214823897
91,67.56417112299465,835.6122994652407,0.1685242035013015
92,69.08011049723757,834.9116022099447,0.18242356465462833
93,70.05962059620596,835.5338753387534,0.1489455547100913
94,71.51566951566952,834.4358974358975,0.15274245941635015
95,72.59302325581395,835.7325581395348,0.12999982201521446
96,74.36111111111111,834.2222222222222,0.12788333508761046
97,75.24262295081967,833.4262295081967,0.162981254686226
98,76.39446366782006,833.0726643598616,0.14286087317190346
99,77.94809688581314,832.4463667820069,0.17256910110659301
100,79.33204633204633,832.2471042471043,0.1481307919940649
101,80.52631578947368,831.0818713450292,0.14727440022499194
102,81.6951219512195,831.0487804878048,0.15760497337804094
103,82.94270833333333,830.8958333333334,0.17228566856982225
104,84.20571428571428,830.0571428571428,0.2785077961113411
105,85.19135802469135,829.320987654321,0.2957649567995724
106,86.86754966887418,828.3377483443709,0.276842727616175
107,88.1203007518797,827.0902255639098,0.3936614101351971
108,89.15277777777777,825.2847222222222,0.35802307771510117
109,90.47272727272727,825.0121212121212,0.13603303339038716
110,91.96794871794872,823.8205128205128,0.17942207121742404
111,93.0561224489796,823.0510204081633,0.1378344504119636
112,94.34831460674157,822.5056179775281,0.1364140943029994
113,95.25806451612904,821.7281105990784,0.14753611412462359
114,96.67117117117117,821.1531531531532,0.0775920564575745
115,97.74609375,821.14453125,0.07245956564191625
116,98.824,819.596,0.08534513436541587
117,99.89763779527559,820.0157480314961,0.022896090632839566
118,100.93076923076923,819.6884615384615,0.035354360909663186
119,101.99333333333334,818.8199999999999,0.03735342276842727
120,103.28301886792453,817.6981132075472,0.014582610251232735
121,103.88659793814433,817.8865979381443,0.01247486875815455
122,105.15269461077844,817.8532934131737,0.025944993057104168
123,106.2764705882353,817.1411764705882,0.01576837325383196
124,107.28113879003558,817.3167259786477,-0.01840900453685919
125,108.6441717791411,816.2085889570552,-0.007556754549010455
126,109.45704467353951,817.0171821305842,-0.02921171685618546
127,110.56811594202898,815.3884057971014,-0.012570410721696755
128,111.44285714285714,816.7342857142858,-0.051945645820484235
129,112.70805369127517,815.8892617449665,-0.047373583342058614
130,113.73431734317343,816.7084870848709,-0.07377915556776161
131,114.63481228668942,815.4982935153583,-0.0654617034942038
132,115.69205298013244,816.1092715231788,-0.07717332321197924
133,116.79530201342281,815.6442953020135,-0.09247977550004204
134,117.68835616438356,816.7842465753424,-0.12817316299325576
135,118.77319587628865,815.5704467353952,-0.10870110485494457
136,119.83629893238434,816.0391459074733,-0.12586472221147213
137,120.79617834394904,816.9299363057324,-0.15675881392646848
138,121.82558139534883,816.9651162790698,-0.16640109740751952
139,122.81509433962265,817.7471698113208,-0.20343180157998658
140,123.77859778597787,817.180811808118,-0.20156737859358165
141,124.65666666666667,817.37,-0.2206369880115862
142,125.73880597014926,817.5559701492538,-0.2441830593452403
143,126.73702422145328,817.6574394463668,-0.27366213861519567
144,127.89,818.48,-0.31846552643455905
145,128.9537366548043,818.3060498220641,-0.34770439825245747
146,129.89003436426117,819.1993127147766,-0.3572170219008524
147,130.62230215827338,819.4604316546763,-0.4346025284365371
148,131.77551020408163,819.6938775510204,-0.5006407751348896
149,133.16666666666669,820.0416666666666,-0.6328557193158223
150,134.13934426229508,820.610655737705,-0.7215461545671162
151,135.0,820.8447488584475,-0.8922902418173531
152,136.23766816143498,820.8834080717488,-0.989222259945208
153,137.7117117117117,821.6621621621622,-1.420283180753934
154,138.9531914893617,821.7489361702128,1.2565410344293433
155,139.63392857142856,822.5669642857143,1.0597975087041558
156,140.44628099173553,823.0537190082645,0.9333194673420707
157,141.58367346938775,823.3551020408163,0.7629861416040914
158,142.60392156862747,823.8078431372548,0.6799756626166064
159,143.45090909090908,824.76,0.5770171890907076
160,144.50545454545454,824.84,0.5537268750548764
161,145.46440677966103,825.2847457627119,0.5147517996007756
162,146.70707070707073,825.7912457912457,0.4518534464131643
163,147.63192182410424,826.3387622149837,0.41043976103584817
164,148.75953079178885,826.1612903225806,0.3889162160882709
165,149.6537313432836,827.5253731343283,0.3422627519647294
166,150.7797619047619,827.3154761904761,0.33965161856492165
167,151.88,828.24,0.30728825695658596
168,152.88533333333334,828.5093333333333,0.28935421317760573
169,153.86595174262735,828.745308310992,0.2890890473633216
170,154.9305912596401,829.107969151671,0.26801633002992575
171,156.26361031518624,828.6618911174785,0.24627287409961868
172,157.2319587628866,829.0360824742268,0.23848211943992237
173,158.3582474226804,829.4432989690722,0.23498053010479444
174,159.5644699140401,828.9025787965616,0.2194799438316025
175,160.51428571428573,830.0857142857143,0.20234844086234705
176,161.75342465753425,829.0657534246575,0.1954558021532286
177,162.84810126582278,829.6759493670886,0.18182772423221094
178,163.87988826815644,830.0642458100558,0.17807848443187255
179,164.46778042959426,829.983293556086,0.20576983533692544
180,166.06870229007632,829.7302798982188,0.15261032929196475
181,167.24598930481284,829.7807486631016,0.15379478692865983
182,168.25958702064895,829.3038348082596,0.15291364893277393
183,169.68992248062017,828.6330749354005,0.1416057779358226
184,170.5377643504532,828.5438066465257,0.1317512172968372
185,171.6432748538012,828.2134502923976,0.13564392118272914
186,172.85454545454547,828.0545454545454,0.13856368576014805
187,173.96129032258065,827.8612903225807,0.12270177495292102
188,175.03678929765886,826.7658862876254,0.12647734079242545
189,175.14678899082568,833.348623853211,-0.08675301183543005
190,177.09893992932862,827.2190812720848,0.1667005158270797
191,179.19767441860466,818.5930232558139,0.29233266949863596
192,179.71493212669685,825.0995475113123,0.1155557015847346
193,180.76543209876542,824.0740740740741,0.1350567259288026
194,182.03521126760563,823.3802816901408,0.1225848837017991
195,182.93333333333334,823.1277777777777,0.17005716271667076
196,184.1208053691275,822.0268456375838,0.27312035374832355
197,185.0,820.3356643356643,0.19095835194044306
198,186.1063829787234,818.7234042553191,0.3292488102483059
199,187.45801526717557,817.6335877862596,0.23929886241903955
200,188.47297297297297,816.5405405405405,0.14501314355027392
201,189.48876404494382,816.0224719101124,0.12846676257219422
202,190.27403846153845,815.2836538461538,0.10132069707988806
203,191.43367346938777,815.0153061224489,0.08690719547659523
204,192.725321888412,813.7596566523605,0.08870198250153907
205,193.45381526104416,813.4779116465863,0.0883323846456156
206,194.55725190839695,812.6297709923664,0.043070670632892084
207,195.52719665271968,811.7991631799164,0.035766353712677196
208,196.51417004048585,811.3441295546559,0.03726537402634483
209,197.39622641509433,811.1207547169811,0.024934208518320115
210,198.55769230769232,810.4807692307693,0.015679233723535375
211,199.36496350364962,809.3138686131387,0.01899566241146978
212,200.1360544217687,809.795918367347,-0.005643387693733373
213,201.0888157894737,809.0855263157895,-0.0022562732329898076
214,202.04868913857678,808.7116104868913,-0.01673038565821192
215,202.97050147492627,808.4513274336283,-0.012914055721311218
216,203.95205479452056,808.1746575342465,-0.02640078111762656
217,205.06686930091183,807.7142857142857,-0.018737010323856676
218,205.58496732026146,807.3039215686274,-0.032493593173266076
219,206.44868035190615,807.266862170088,-0.03699973577622689
220,207.41724137931033,807.7793103448275,-0.05708163347898653
221,208.29965156794424,806.9512195121952,-0.05540972740934797
222,209.23793103448276,807.2413793103449,-0.06122091117131925
223,210.1306990881459,807.3951367781156,-0.08648255183042908
224,210.80988593155894,809.1977186311788,-0.1170795624118449
225,211.77241379310345,808.5620689655173,-0.11711666129849074
226,212.70631970260223,809.0148698884758,-0.13350372248065198
227,213.56521739130434,809.4239130434783,-0.1531730744854458
228,214.32472324723247,809.040590405904,-0.16890476582212655
229,215.3632958801498,810.1235955056179,-0.21383859558615756
230,216.1686746987952,810.3694779116465,-0.25325446742470237
231,217.006993006993,810.0594405594405,-0.25279352206234473
232,218.08641975308643,811.2510288065844,-0.3072914032730467
233,219.0781893004115,811.4444444444445,-0.32792071810029233
234,219.1596958174905,810.6007604562737,-0.47441499178469093
235,220.7304347826087,811.695652173913,-0.44107704323913566
236,221.77637130801688,812.0210970464135,-0.49636280356630275
237,223.09950248756218,812.7810945273632,-0.5936532401984204
238,223.72811059907832,812.7142857142857,-0.6551405831524266
239,224.57560975609755,813.8975609756097,-1.0271146866702239
240,225.42396313364054,814.2488479262672,1.227015518875828
241,226.29000000000002,814.665,0.9199907129063731
242,227.00847457627117,814.7754237288136,0.7897306395949265
243,227.74786324786325,815.9316239316239,0.6456193517091747
244,229.15510204081633,815.6489795918367,0.5373200091418291
245,230.33744855967078,815.9423868312757,0.5189068337997904
246,231.2,816.8415094339623,0.44446444058647494
247,232.13703703703703,817.1444444444444,0.4082568379027665
248,232.9,817.48,0.38071815451372876
249,233.42704626334518,818.2562277580071,0.3534796358531544
250,234.19504643962847,818.7770897832818,0.3409583503768517
251,235.33333333333331,819.3553113553114,0.2873946776890633
252,236.4498269896194,819.0034602076124,0.2964651427271985
253,237.35311572700297,820.3382789317508,0.23990069972482453
254,238.33962264150944,820.0566037735849,0.22875905213422953
255,239.4140127388535,820.2643312101911,0.2245206846035533
256,240.42763157894737,819.2006578947369,0.2267950600089786
257,241.34954407294833,820.6990881458967,0.19135230637302678
258,242.43636363636364,820.9818181818182,0.17234202620565553
259,243.18783068783068,821.6031746031746,0.17575963325694902
260,244.03076923076924,821.0128205128206,0.15034902236422892
261,245.3044619422572,821.5406824146982,0.13708463440602517
262,246.1775147928994,821.3165680473373,0.14520349437953411
263,247.1742857142857,821.52,0.1311004514681507
264,248.0157894736842,820.9605263157895,0.11720488184472531
265,248.8801089918256,821.8719346049046,0.11037002756599994
266,250.13455657492355,821.0152905198777,0.10891998632710824
267,251.37770897832817,820.1517027863777,0.11072756200757482
268,252.24857142857144,820.2457142857143,0.09438799139597902
269,253.19607843137254,819.7483660130719,0.1000816587806448
270,254.1304347826087,819.5016722408027,0.08734495006502391
271,255.27302631578948,819.0263157894736,0.08316092407368793
272,256.1884615384615,818.7230769230769,0.08325708786840653
273,257.17241379310343,817.4551724137931,0.04529914530373689
274,258.19615384615383,817.3115384615385,0.05410415245340185
275,259.281124497992,817.140562248996,0.04159292167809812
276,260.2426035502958,815.8934911242603,0.0744619912898753
277,261.49514563106794,814.9174757281553,0.10184821395079328
278,262.31205673758865,814.0070921985815,0.11244682380047948
279,263.1011904761905,813.5238095238095,0.1985864289374242
280,263.8364779874214,812.622641509434,0.25026161871553454
281,265.20422535211264,810.4295774647887,0.24667680245548027
282,266.16083916083915,808.5314685314686,0.2543573484760641
283,267.17687074829934,807.4897959183673,0.19965185621632883
284,268.2294117647059,806.8176470588235,0.16145003272666836
285,269.48704663212436,805.7668393782384,0.10789281972795037
286,270.15714285714284,805.1285714285714,0.1412935298731858
287,270.8909952606635,804.3412322274881,0.10115133703774602
288,271.6605504587156,803.4908256880734,0.10606201000029797
289,272.69827586206895,802.8275862068965,0.09052251155238461
290,273.47583643122675,802.3048327137546,0.07338827192807972
291,274.33807829181495,801.3096085409253,0.05964319456430497
292,275.15849056603776,801.3584905660377,0.055324127158877925
293,276.0582191780822,799.9041095890411,0.05345193605476638
294,277.0495356037152,800.6470588235294,0.016467321626741215
295,277.7902097902098,800.2272727272727,0.017703176228529807
296,278.580985915493,798.9929577464789,0.01591255913637736
297,279.56228956228955,798.3771043771044,0.021184362459281233
298,280.1063829787234,798.918439716312,0.006915250120644934
299,280.91946308724835,798.8355704697987,-0.0035738552756677754
300,281.8608695652174,798.7188405797101,-0.0035337682709179713
301,282.5,798.2702702702703,-0.009424488359995679
302,283.33217993079586,797.9377162629758,-0.0158601402594004
303,283.9965986394558,797.8333333333334,-0.03745338774193403
304,284.9486301369863,797.986301369863,-0.028307095114466656
305,285.5551724137931,798.1275862068966,-0.047410725842605736
306,286.401384083045,797.961937716263,-0.054797528073391645
307,287.12847222222223,799.1944444444445,-0.07592277669062675
308,287.9146757679181,798.7645051194539,-0.08178728892828083
309,288.8081180811808,799.7343173431734,-0.11433030918783815
310,289.66541353383457,800.0263157894736,-0.14110835091016677
311,290.47744360902254,801.0451127819549,-0.17665024106292437
312,291.02867383512546,801.1505376344086,-0.20843101676308898
313,292.0646551724138,801.9008620689656,-0.24700070290061585
314,292.54545454545456,801.4583333333334,-0.2696097147247777
315,293.8021978021978,801.6483516483516,-0.2790644519081382
316,294.6666666666667,802.1666666666666,-0.3134825337922568
317,295.444,802.316,-0.4181555028483543
318,295.9157894736842,802.8894736842105,-0.4399642645908467
319,296.9375,803.1490384615385,-0.5580765040549387
320,297.56716417910445,803.7512437810946,-0.41091190719825427
321,298.7129186602871,804.22009569378,-0.07205820546971199
322,299.311004784689,804.5885167464115,0.7982012506299064
323,300.56363636363636,805.4181818181818,0.6864645722412142
324,301.12033195020746,806.5435684647302,0.5690090606150512
325,301.921568627451,806.2058823529412,0.5286320150159831
326,302.9087301587302,806.9761904761905,0.5054983480204409
327,303.50655021834064,807.235807860262,0.3998410012719321
328,304.1666666666667,807.625,0.40533972525354134
329,304.91608391608395,807.8181818181818,0.37501241583710293
330,305.9846743295019,808.3486590038315,0.3254606579880369
331,306.62068965517244,808.6934865900383,0.28568083268350675
332,307.54014598540147,808.9416058394161,0.27868972521899366
333,308.5693215339233,809.9911504424779,0.23535582784742842
334,309.3693379790941,809.6062717770035,0.24324174705439827
335,310.5727002967359,808.7715133531158,0.24564246177726654
336,311.13468013468014,808.7912457912457,0.24910142188866213
337,311.89144736842104,809.8717105263158,0.20552786094168077
338,312.784126984127,810.2698412698412,0.18872463370226064
339,313.887537993921,810.1276595744681,0.1704662017445423
340,314.72615384615386,810.0923076923077,0.1607137778581483
341,315.6666666666667,810.9055118110236,0.13303289060602747
342,316.41614906832297,811.472049689441,0.12900107866760974
343,317.3072289156627,811.1084337349398,0.12740161309965017
344,318.28086419753083,810.5679012345679,0.11942186687398192
345,319.08777429467085,810.5203761755486,0.11478094495168056
346,320.10596026490066,810.2152317880794,0.11211971249464177
347,320.99410029498523,810.3038348082596,0.10248605967656083
348,321.9483870967742,810.5548387096774,0.08328816226005882
349,323.1065088757397,809.905325443787,0.08587970208832733
350,323.72027972027973,809.1643356643357,0.08379946051630012
351,324.7687296416938,808.4560260586319,0.07872676235983433
352,325.82867132867136,807.8321678321678,0.05257207943975163
353,326.3202846975089,808.0391459074733,0.08419439167706834
354,327.52156862745096,806.6235294117647,0.06213692594397304
355,328.5882352941177,806.4789915966387,0.07278709789123136
356,329.479674796748,805.1626016260162,0.06646992956603368
357,330.2974683544304,804.5886075949367,0.08351466835676055
358,331.32374100719426,803.6978417266187,0.05129630693469513
359,332.24309392265195,804.2872928176796,0.23175865564166095
360,333.0986842105263,801.9605263157895,0.22314797020925994
361,334.31851851851854,799.5703703703704,0.15621488379982928
362,335.2167832167832,797.979020979021,0.23982015821239425
363,336.06134969325154,796.9693251533743,0.22810179095689415
364,336.92737430167597,795.6648044692738,0.21554571716262266
365,337.9034090909091,794.4829545454545,0.15188728371979907
366,338.47767857142856,793.9107142857143,0.12445658116488037
367,339.6363636363636,792.8719008264463,0.1612112266266253
368,340.0082644628099,792.2809917355372,0.08133833648226843
369,341.0739299610895,791.0272373540856,0.11572083972544947
370,341.7251908396947,790.5648854961833,0.0900096858344946
371,342.4475806451613,789.9233870967741,0.06417405214266082
372,343.3267326732673,789.3597359735974,0.08280562524324671
373,344.09774436090225,788.781954887218,0.06409968751018195
374,344.8044280442804,788.6605166051661,0.043739654217502595
375,345.50662251655626,788.317880794702,0.035581748330217405
