FrameNo,Row,Column,Angle
1,48.027624309392266,847.6574585635359,-0.440198896015184
2,49.08273381294964,848.046762589928,-0.4960931491561515
3,49.95955882352941,848.5514705882352,-0.5305621705321593
4,51.128571428571426,849.2107142857143,-0.5817465434811084
5,52.201465201465204,849.7655677655678,-0.6215660266357711
6,53.14946619217082,850.2170818505338,-0.6804813483123743
7,54.1985559566787,850.7400722021661,-0.7373429255708553
8,55.19713261648746,851.4551971326165,-0.8032836341408283
9,56.4,852.1357142857142,-0.8930885616687833
10,57.38289962825279,853.089219330855,-0.9801210820119634
11,58.41489361702128,853.7624113475177,-1.0834006945564651
12,59.51470588235294,854.5183823529412,-1.1765728569067797
13,60.762411347517734,855.4609929078014,-1.332287504768337
14,61.74295774647887,856.1830985915493,-1.459664636766897
15,63.035714285714285,857.1607142857143,1.532761749978198
16,64.45390070921985,858.0992907801418,1.3838941745266184
17,65.68707482993197,858.9421768707483,1.269173955125042
18,66.66107382550335,859.7986577181208,1.153828316034686
19,67.99659863945578,860.7891156462586,1.0563424885152826
20,69.21070234113712,861.571906354515,0.9661637528881403
21,70.57605177993527,862.453074433657,0.8951920554902745
22,72.0064308681672,862.9421221864952,0.83662707201895
23,73.27302631578948,863.7236842105264,0.7588434540971339
24,74.32154340836013,864.6109324758843,0.7230680311887354
25,75.77272727272727,865.1980519480519,0.6718867393324375
26,77.09316770186335,865.8136645962733,0.6275050664078305
27,78.40189873417721,866.4462025316456,0.5907793918471002
28,79.67289719626169,867.3052959501558,0.5559029797461376
29,81.14511041009463,867.5615141955836,0.5290739646300506
30,82.33542319749216,868.3166144200627,0.5109983722600044
31,83.7753164556962,868.7816455696202,0.470443317964948
32,85.32,868.6861538461538,0.4429112182825016
33,86.8801261829653,868.8517350157729,0.42595814836901896
34,88.09265175718849,869.3258785942492,0.4086095925815124
35,89.39811912225706,869.7586206896551,0.3884346318076417
36,91.12582781456953,869.3675496688742,0.3655158614558761
37,92.33333333333333,870.1353135313532,0.3521483839260222
38,93.62372881355932,870.1355932203389,0.3382040788859219
39,94.92361111111111,870.4166666666666,0.3280782793246005
40,96.3010752688172,870.4802867383512,0.3042998878874485
41,97.82720588235294,869.8529411764706,0.2914800000722519
42,99.17537313432835,870.1268656716418,0.27923316550142213
43,100.57198443579766,869.863813229572,0.2675995849841272
44,101.968,869.992,0.2640323409208154
45,103.32758620689656,869.6379310344828,0.24617016109342035
46,104.46288209606988,869.8078602620087,0.23208167919233166
47,106.07798165137615,868.651376146789,0.22932861463824758
48,107.13207547169812,869.0849056603773,0.2142887325002295
49,108.68877551020408,868.219387755102,0.19780581006023137
50,109.91752577319588,867.7886597938144,0.18727434066965587
51,111.47398843930635,867.5433526011561,0.1910668693814485
52,113.12612612612612,865.2612612612613,0.17086583248669615
53,115.36170212765957,857.063829787234,0.22628002614035972
54,115.5204081632653,864.9387755102041,0.16531269647330565
55,116.5275590551181,866.1181102362204,0.15463601061532684
56,118.0909090909091,863.7142857142857,0.14756190240041317
57,120.0,858.8837209302326,0.1382429433870442
58,120.91666666666667,860.5625,0.10569392755351231
59,122.075,859.625,0.20597117079291538
60,123.13888888888889,860.0277777777778,0.21027581622350835
61,124.31428571428572,861.0285714285715,0.10377412474068262
62,125.325,861.95,0.11718645087706528
63,126.55319148936171,861.1914893617021,0.2049519384290299
64,128.02439024390245,860.7560975609756,0.1755195259036866
65,129.14634146341461,860.4878048780488,0.1518355791722574
66,130.37254901960785,859.6078431372549,0.07327773606033335
67,131.66101694915255,859.4237288135594,0.04921063013782249
68,132.51785714285714,859.9642857142857,0.07209426737187045
69,133.78688524590166,859.360655737705,0.06355272662049379
70,134.7258064516129,859.7096774193549,0.03801789612886009
71,135.825,857.8875,0.015558077140570172
72,137.01020408163265,857.7448979591836,-0.014638623860412092
73,138.34375,857.3541666666666,-0.027520076809088974
74,139.3478260869565,860.1014492753623,-0.03820532217054158
75,140.35897435897436,858.9487179487179,-0.02159903935891401
76,141.3186813186813,858.5164835164835,-0.026755660570562438
77,142.5211267605634,861.9718309859155,-0.01419233769788551
78,143.58666666666667,861.2266666666667,-0.057543663029509626
79,144.40540540540542,856.8018018018018,-0.06427059528074475
80,145.30434782608694,854.6304347826087,-0.06728666983334779
81,146.3661971830986,855.6408450704225,-0.07038960591909847
82,148.203125,864.234375,-0.1073548413178333
83,148.61061946902655,855.9469026548672,-0.0988593710348174
84,149.48823529411766,854.5882352941177,-0.09750272649772167
85,150.30167597765364,853.1843575418994,-0.11054115677979691
86,151.12568306010928,852.1912568306011,-0.11307184827470201
87,152.30927835051546,853.0309278350516,-0.1355902338859088
88,153.26530612244898,853.0102040816327,-0.14586356353929877
89,153.83732057416267,851.1387559808612,-0.1486308027876797
90,155.01904761904763,851.7761904761904,-0.15724674128179503
91,156.06132075471697,852.1179245283018,-0.18295583302495766
92,156.7926267281106,851.594470046083,-0.19528803650019327
93,157.95982142857144,852.1875,-0.21335205317814643
94,158.97737556561086,852.7330316742082,-0.23098508915122812
95,159.66239316239316,852.1111111111111,-0.24697476967600343
96,160.73333333333335,852.25,-0.27178883797719433
97,161.69037656903765,853.1464435146444,-0.2944254003599763
98,162.4139344262295,852.8237704918033,-0.3122043628831266
99,163.44871794871796,853.4188034188035,-0.3381823621359413
100,164.4255319148936,854.0042553191489,-0.37468083212662895
101,165.38095238095238,854.4632034632035,-0.398657966964703
102,166.42241379310343,855.0431034482758,-0.4534187712932208
103,167.11814345991561,855.2320675105485,-0.49453678020321207
104,168.09322033898303,855.9491525423729,-0.5363052578503097
105,168.95633187772927,856.5240174672489,-0.597079805134308
106,169.79237288135593,857.0677966101695,-0.6759442153978762
107,170.5,857.4419642857143,-0.7191885822926241
108,171.60085836909872,858.3218884120172,-0.8552171911959012
109,172.50218340611355,859.296943231441,-0.9820249770776152
110,173.28879310344826,859.8405172413793,-1.093144072179321
111,174.34529147982062,860.9596412556053,-1.3151861734625574
112,175.43881856540085,861.9873417721519,1.5694919869797515
113,176.30769230769232,862.9316239316239,1.3283851147580343
114,177.3304721030043,863.8583690987125,1.1314031932630828
115,178.52118644067798,864.6906779661017,0.9800597932070361
116,179.6326530612245,865.5632653061225,0.8863736257170751
117,180.38333333333333,866.5458333333333,0.8077066365663389
118,181.59504132231405,867.2644628099174,0.7358780132670457
119,182.65416666666667,868.0625,0.6847298655439801
120,183.74089068825913,868.8906882591093,0.627056555992903
121,184.92592592592592,869.5144032921811,0.5737970488731073
122,185.86345381526104,870.2128514056225,0.5410274907492167
123,187.07258064516128,870.9395161290322,0.5061109087440726
124,188.42292490118575,871.1541501976285,0.47406394089853215
125,189.46530612244896,871.7918367346939,0.4361775594700704
126,190.58870967741936,872.1532258064516,0.42706708312145647
127,191.9265306122449,872.2204081632653,0.4016412531603245
128,192.78137651821862,872.8259109311741,0.3867110020549758
129,194.03813559322032,873.1016949152543,0.3596343754546568
130,195.1223628691983,873.4894514767932,0.33831645675124256
131,196.2655601659751,873.5228215767635,0.33647737406073586
132,197.6391304347826,873.3478260869565,0.314044401470106
133,198.69747899159665,873.2773109243698,0.2944458837432849
134,199.91379310344826,873.3706896551724,0.29066063759977384
135,201.073732718894,873.4654377880184,0.2819478140420616
136,202.3317757009346,872.7242990654206,0.267086480475115
137,203.27699530516432,873.2957746478874,0.25808882423449375
138,204.56521739130434,872.8695652173913,0.2509140484477957
139,205.53333333333333,872.5897435897436,0.23425488462449545
140,207.04918032786884,871.7377049180328,0.23787291417177361
141,207.8478260869565,872.9619565217391,0.2276783286061796
142,209.6578947368421,869.3421052631579,0.21151641767497142
143,210.2173913043478,871.2298136645962,0.20769198182872878
144,213.5769230769231,859.9807692307693,0.2090314478625634
145,214.55357142857144,860.0714285714286,0.21548832735352938
146,214.5897435897436,865.1153846153846,0.21006422442644254
147,216.35714285714286,861.0714285714286,0.1852113426427877
148,216.1098901098901,867.4285714285714,0.2089184178099721
149,218.375,861.3333333333334,0.2688577746248818
150,219.1290322580645,862.983870967742,0.2485345555600075
151,220.05357142857144,862.9285714285714,0.21911357217184363
152,221.17391304347825,862.8695652173913,0.24702624971698783
153,221.77358490566036,864.2641509433962,0.18525180488728146
154,222.87755102040816,864.530612244898,0.20719877294647016
155,223.42000000000002,865.8199999999999,0.25793970078413697
156,224.81395348837208,864.7209302325582,0.18780089214343257
157,225.39655172413794,865.0172413793103,0.2097592497310754
158,226.4313725490196,864.3921568627451,0.11127105771583218
159,227.47619047619048,863.4126984126984,0.02945640933410947
160,228.40579710144928,862.7246376811594,-0.01444093672459014
161,229.59154929577466,861.7183098591549,-0.048738364084062694
162,230.37974683544303,861.7848101265822,-0.043320328404836086
163,231.53086419753086,861.1975308641976,-0.03253297117019814
164,232.1868131868132,861.5494505494505,-0.016025674147885794
165,233.46315789473684,860.4526315789474,-0.04721555307157702
166,234.31683168316832,860.1287128712871,-0.06711820273300749
167,235.15533980582524,859.3300970873786,-0.040790817484035576
168,236.01754385964912,859.3508771929825,-0.05862801310300694
169,236.99056603773585,859.2075471698113,-0.06140064395300194
170,238.01851851851853,859.4722222222222,-0.06824809871743895
171,238.86065573770492,859.0491803278688,-0.06332470522933296
172,239.70967741935482,858.8145161290322,-0.06781475932382357
173,240.57777777777778,859.1481481481482,-0.0680379868550385
174,242.16,866.2,-0.06609385275816622
175,242.18791946308727,856.9194630872483,-0.08616389908894931
176,243.30327868852459,859.1967213114754,-0.09702702380041804
177,244.0728476821192,858.0463576158941,-0.09379642453301226
178,244.8529411764706,856.464705882353,-0.10047595748142868
179,245.8,856.7085714285714,-0.10588361776685026
180,246.4310344827586,855.6896551724138,-0.12464427542070894
181,247.24861878453038,855.7237569060774,-0.12870103980729028
182,248.19021739130434,855.8967391304348,-0.1302737428771991
183,249.09444444444443,856.3833333333333,-0.14811448255407475
184,249.74869109947645,855.1884816753927,-0.1522527900778729
185,250.65816326530614,855.0255102040817,-0.1721221821473539
186,251.3025641025641,854.9538461538461,-0.17741843952945965
187,252.2636815920398,855.6666666666666,-0.19057293257816635
188,253.0769230769231,855.2932692307693,-0.20966910850990983
189,254.00975609756097,856.4048780487805,-0.2198791614440303
190,254.60765550239233,855.976076555024,-0.2536870993482813
191,255.66666666666669,856.8309178743962,-0.2663114253174457
192,256.28205128205127,856.7692307692307,-0.2969403792511643
193,257.0049504950495,857.0148514851485,-0.3143561304921935
194,257.8883495145631,858.0922330097087,-0.34766572134232887
195,258.5323383084577,857.7562189054727,-0.39606641203196286
196,259.2551020408163,858.1836734693877,-0.45564257409633735
197,259.9684210526316,858.8315789473684,-0.4887872527133369
198,260.89473684210526,859.5631578947368,-0.5486634087347173
199,261.66847826086956,860.429347826087,-0.6249743715365578
200,262.3743016759777,860.9720670391062,-0.7288497692964921
201,263.1413043478261,861.8315217391305,-0.8663754575339618
202,264.0111731843575,862.8100558659218,-1.0637985571226176
203,264.92896174863387,863.896174863388,1.5085905486586404
204,265.98930481283423,864.7967914438502,1.1164636541517072
205,266.7741935483871,865.6989247311828,0.890002468794787
206,267.63212435233163,866.5647668393782,0.767946905653278
207,268.5885416666667,867.5416666666666,0.7175284285951502
208,269.0974358974359,868.3282051282051,0.6442332821067825
209,270.0761904761905,869.0857142857143,0.5619062930499562
210,271.2392344497608,869.8995215311005,0.5218935400382999
211,272.1601941747573,870.6067961165048,0.47703276808217
212,273.0967741935484,871.0875576036866,0.44907541678418017
213,273.97641509433964,871.622641509434,0.42530704249025475
214,274.97641509433964,872.2216981132076,0.4011383353483677
215,275.91324200913243,872.8858447488584,0.3603418034651599
216,277.00938967136153,873.037558685446,0.3378095113526215
217,277.8356807511737,873.4929577464789,0.33419082367337843
218,279.05333333333334,873.2666666666667,0.3079199160942507
219,279.9223300970874,873.8349514563107,0.28825663636899423
220,280.8272727272727,873.8636363636364,0.287081506616153
221,281.7089201877934,874.6291079812206,0.2688771452247979
222,282.7029702970297,874.2524752475248,0.26038950051012977
223,283.65306122448976,874.7653061224489,0.2453335414187154
224,284.96019900497515,873.7064676616916,0.2390202838491775
225,285.67539267015707,874.2565445026178,0.2341200936266164
226,286.6951871657754,874.2994652406417,0.22493936160720363
227,287.757225433526,873.4046242774566,0.22257844560901238
228,288.7088607594937,873.4556962025316,0.2155879655400853
229,292.3666666666667,860.3333333333334,0.22099643809027092
230,293.3157894736842,859.9649122807018,0.20886771211805036
231,292.58181818181816,867.8727272727273,0.2145863134173993
232,292.9922480620155,869.3488372093024,0.21055109151910723
233,295.6190476190476,862.0952380952381,0.21354949025533468
234,295.3980582524272,866.4077669902913,0.21916632266821431
235,296.67,865.2,0.22866396249412335
236,297.38271604938274,865.3333333333334,0.2215495651683394
237,297.98130841121497,866.2429906542056,0.22526046502977137
238,299.04651162790697,865.6627906976744,0.24214546971818968
239,299.4418604651163,867.2674418604652,0.24656660898373883
240,300.2783505154639,868.1237113402062,0.22607766622358497
241,300.91208791208794,868.2417582417582,0.2613465334911366
242,301.63440860215053,868.483870967742,0.26161778448205963
243,302.6,867.175,0.2553254458666372
244,303.4074074074074,867.2345679012345,0.3075743335429581
245,304.24,867.04,0.3258992602016731
246,305.2916666666667,865.7777777777778,0.21315938004251053
247,306.1973684210526,865.078947368421,0.10363012148132028
248,306.9189189189189,864.1486486486486,-0.03379676799378103
249,307.9102564102564,863.474358974359,-0.10464211512184006
250,308.7951807228916,862.8313253012049,-0.19434675395566267
251,309.6489361702128,862.2021276595744,-0.17808939454783146
252,310.4591836734694,861.469387755102,-0.15548114577647185
253,311.0761904761905,860.5619047619048,-0.14976435882893843
254,312.1538461538462,860.7692307692307,-0.1272449345263643
255,312.89814814814815,859.5648148148148,-0.12826506281804953
256,313.728813559322,859.2372881355932,-0.1259238395284297
257,314.5689655172414,859.1810344827586,-0.1075398914152404
258,315.4803149606299,859.0629921259842,-0.11722820787970084
259,316.14960629921256,858.251968503937,-0.09982711244405214
260,317.2265625,859.2890625,-0.11097815182884985
261,317.89230769230767,858.0076923076923,-0.1056433049704098
262,318.8220338983051,859.0593220338983,-0.10341057380399313
263,319.5813953488372,859.8139534883721,-0.09068598030179986
264,320.42477876106193,860.1327433628319,-0.09724292542737004
265,321.1641791044776,859.776119402985,-0.0952338349689403
266,321.92957746478874,859.7676056338028,-0.09659252456623069
267,322.93859649122805,860.6666666666666,-0.114454761139168
268,323.5581395348837,859.7286821705427,-0.11558002488228492
269,324.39864864864865,859.9121621621622,-0.11489107684673812
270,325.1294964028777,859.9496402877697,-0.11948855796023404
271,325.7832167832168,858.7832167832167,-0.12824978042512103
272,326.29577464788736,857.5633802816901,-0.13199960914775233
273,327.16875,857.93125,-0.13554949530843502
274,327.80254777070064,856.859872611465,-0.1443496991768668
275,328.5806451612903,857.2258064516129,-0.1540660496415846
276,329.28025477707007,856.9108280254777,-0.16536103954679743
277,329.93589743589746,856.6858974358975,-0.17136989758715163
278,330.625,856.875,-0.19353701206043628
279,331.32716049382714,856.8024691358024,-0.19888782406219663
280,332.2658227848101,857.5189873417721,-0.21838405224660487
281,332.7559523809524,857.3690476190476,-0.2404060301208231
282,333.43859649122805,857.5204678362574,-0.2618818925523169
283,334.2658227848101,857.9556962025316,-0.2866973482083081
284,334.86451612903227,858.3806451612903,-0.3106000176275586
285,335.47852760736197,858.6871165644172,-0.34046917129022874
286,336.22297297297297,859.1351351351351,-0.3852947105092369
287,337.10596026490066,859.9337748344371,-0.456512612780967
288,337.6241134751773,860.531914893617,-0.49433227509726024
289,338.4397163120567,861.2695035460993,-0.5624914313434864
290,339.1,862.1866666666667,-0.5042765529707037
291,339.8732394366197,862.8732394366198,-0.24431607432002156
292,340.55172413793105,864.0620689655173,0.7827442002437113
293,341.3884892086331,864.9496402877697,0.6555930002966746
294,342.39568345323744,865.5107913669065,0.6160399889190792
295,343.1533333333333,866.28,0.5280735549904423
296,343.8137931034483,867.4137931034483,0.5143381277097263
297,344.6477987421384,868.4528301886793,0.4641529173298043
298,345.8181818181818,868.5974025974026,0.43348134922492054
299,346.25625,869.525,0.3884939359402324
300,347.251572327044,869.8427672955975,0.3735924144618602
301,347.8095238095238,870.7380952380952,0.3371715127705458
302,348.76047904191614,870.7604790419161,0.32991163297774634
303,349.54777070063693,871.1273885350319,0.2987810503742051
304,350.22641509433964,872.1572327044025,0.2809403134192993
305,351.0670731707317,872.2134146341464,0.27505994418683505
306,352.09433962264154,871.7735849056604,0.2515429204846843
307,353.0828025477707,871.4140127388534,0.2474551996404121
308,353.77575757575755,872.260606060606,0.24385790669932886
309,354.43835616438355,872.4794520547945,0.23001242676892256
310,355.3164556962025,872.4303797468355,0.22705296860587107
311,358.9016393442623,860.2459016393443,0.22031937636164176
312,358.0,867.675,0.215551098502058
313,358.6328125,868.4921875,0.20621604424111828
314,359.59482758620686,867.5344827586207,0.20647897740016144
315,360.54330708661416,866.9448818897638,0.2132986759399356
316,361.4074074074074,866.1944444444445,0.20697413943118903
317,361.94690265486724,866.9469026548672,0.21212145330825688
318,362.95,866.05,0.2113758167498229
319,363.06716417910445,869.0522388059701,0.21800034589085657
320,363.78169014084506,869.0704225352113,0.22260171831385114
321,364.5255474452555,868.8978102189781,0.2148489624019056
322,365.359375,868.765625,0.22884936158516908
323,365.78985507246375,870.0507246376811,0.22505159469009317
324,366.7073170731707,868.8943089430894,0.24625463374028286
325,367.27611940298505,869.2985074626865,0.2422868575068024
326,368.130081300813,869.0650406504064,0.25865700055413027
327,368.7933884297521,869.1652892561983,0.27650810751424953
328,369.67826086956524,868.1217391304348,0.2939290140854313
329,370.4770642201835,867.8623853211009,0.2906699724230759
330,371.23364485981307,867.2710280373832,0.3273623102094802
331,371.8198198198198,867.2792792792793,0.3693069910737006
332,372.5,866.704081632653,0.3806304045973559
333,373.27272727272725,866.0227272727273,0.38004311517598477
334,374.06451612903226,865.0645161290322,0.33567528608292696
335,374.75531914893617,864.3829787234042,0.15807530124581248
336,375.85227272727275,863.4431818181818,-0.01140697899492396
337,376.6354166666667,862.6666666666666,-0.2182628154063369
338,377.3267326732673,861.8613861386139,-0.2462062852102159
339,378.02777777777777,861.2314814814815,-0.223757912836987
340,378.9298245614035,860.140350877193,-0.19702558827065014
341,379.7433628318584,859.7964601769911,-0.2087881516777662
