FrameNo,Row,Column,Angle
86,7.248,772.144,0.18592246426767758
87,8.097560975609756,771.9878048780488,0.1698735460464939
88,9.69329073482428,771.5303514376997,0.14254859039001275
89,11.509615384615385,771.0352564102564,0.1245848345958369
90,12.897009966777409,770.5116279069767,0.10884457469349294
91,14.471830985915492,770.3591549295775,0.08727871862058055
92,15.863309352517986,769.9748201438849,0.07282198296312546
93,17.514598540145986,769.507299270073,0.049570258576507806
94,18.889795918367348,768.7755102040817,0.03901443049517656
95,20.391489361702128,768.9531914893616,0.021117808966643857
96,21.89400921658986,767.8479262672811,0.011158847773896162
97,23.17142857142857,767.552380952381,-0.019285922378332442
98,24.74074074074074,766.8412698412699,-0.04757136056499404
99,25.930851063829788,766.0904255319149,-0.039230414255976044
100,27.376543209876544,765.7345679012345,-0.07143524652213684
101,28.8,765.1793103448276,-0.10268068386430013
102,30.22463768115942,764.4855072463768,-0.12921328548804234
103,29.771428571428572,758.9428571428572,-0.049554621642849114
104,32.8252427184466,763.4563106796116,-0.12073223666346909
105,32.44827586206897,760.1724137931035,0.04190977139500286
106,34.755102040816325,760.8571428571429,-0.1907197332674058
107,36.78823529411765,760.2,0.2525869862000286
108,37.848101265822784,759.3924050632911,0.32064198201574207
109,39.24,758.3199999999999,0.31580321324328947
110,40.171052631578945,757.9342105263158,0.291112737841126
111,41.36764705882353,757.0882352941177,0.2510706965492626
112,42.64772727272727,756.9659090909091,0.13950641401412517
113,43.77906976744186,756.1395348837209,0.14768536577896135
114,44.810526315789474,756.6,0.09463454277540943
115,45.94318181818182,755.6477272727273,0.07452847380872724
116,47.05833333333333,755.025,0.055433403843582266
117,48.33734939759036,754.8915662650602,0.022327744523301742
118,49.306930693069305,755.0891089108911,-0.015409742099168584
119,50.29661016949152,754.0084745762712,-0.01671119413391986
120,51.53543307086614,753.3622047244095,-0.03708073276677323
121,52.71544715447155,753.6585365853658,-0.051480789815607844
122,53.61490683229814,752.7577639751553,-0.0698769734164213
123,54.67664670658683,751.7964071856287,-0.08556060930381687
124,55.73142857142857,751.7371428571429,-0.09551205563567514
125,56.857988165680474,752.0887573964498,-0.12856890112198235
126,57.80102040816327,750.9336734693877,-0.14650890445044554
127,58.78235294117647,750.8764705882353,-0.16366033180381012
128,59.555,749.8199999999999,-0.17914295270933828
129,60.663366336633665,750.5544554455446,-0.19865592691154868
130,61.6875,750.4791666666666,-0.2231414922144585
131,62.484162895927604,749.8099547511313,-0.2389598945935628
132,63.52173913043478,749.7782608695652,-0.2643982304761721
133,64.56226415094339,750.1132075471698,-0.2900542771417994
134,65.38636363636364,749.9810606060606,-0.31677025591377345
135,66.13168724279835,749.5308641975308,-0.3429800145830086
136,67.41090909090909,750.5709090909091,-0.3763934328720111
137,68.13503649635037,750.4197080291971,-0.41518277952197974
138,68.92631578947369,750.6561403508772,-0.4406315646965686
139,69.97445255474453,751.0875912408759,-0.4951585960895627
140,70.51578947368421,751.1228070175439,-0.5384310322097077
141,71.82545454545455,752.0072727272727,-0.589775974024777
142,72.58064516129032,752.5448028673835,-0.6521667848608159
143,73.45774647887323,753.1830985915493,-0.7168060672343105
144,74.34767025089606,753.7455197132616,-0.7816007694571562
145,75.54295532646049,754.5876288659794,-0.88204171336495
146,76.48375451263539,755.3610108303249,-0.9859896459758888
147,77.14909090909092,756.0472727272727,-1.0869344346548813
148,78.18014705882354,756.9852941176471,-1.2351835335287122
149,79.39575971731449,758.1660777385159,-1.4194600093375906
150,80.39298245614034,759.2701754385965,1.5409423662976975
151,81.63763066202091,760.219512195122,1.371864330869292
152,83.01689189189189,761.2972972972973,1.20616817217536
153,84.08108108108108,762.5472972972973,1.070735167406879
154,85.35880398671097,763.3056478405316,0.938457678858475
155,86.40255591054313,764.4728434504792,0.8394946573791171
156,87.85806451612903,765.3451612903226,0.7615045483076418
157,89.11635220125787,766.1949685534591,0.6725044437886154
158,90.43081761006289,766.933962264151,0.6140301701508191
159,91.7936507936508,767.7206349206349,0.5393331217725011
160,93.18018018018019,768.2672672672672,0.5003676024912569
161,94.5975975975976,768.9009009009009,0.46212131265559575
162,95.9753086419753,769.4135802469136,0.41593349404091645
163,97.2185628742515,770.125748502994,0.37822750879893624
164,98.61094224924013,770.4954407294833,0.3439526150006872
165,100.11550151975683,770.5835866261398,0.31985963295218395
166,101.53416149068323,770.6459627329193,0.28437436616635076
167,102.95136778115501,770.9635258358662,0.2623567097862611
168,104.32063492063492,771.0825396825397,0.2384142417522781
169,105.634375,771.15625,0.22185941633281034
170,106.9055374592834,771.6254071661238,0.19335402627786816
171,108.17821782178218,771.3762376237623,0.18310568348981923
172,109.68941979522184,770.7849829351536,0.15676171395110264
173,111.09731543624162,770.5469798657718,0.14073537955453003
174,112.31460674157303,770.4943820224719,0.11061969133024786
175,113.67669172932331,770.203007518797,0.09577402793077094
176,114.8024193548387,770.4153225806451,0.07662169340778634
177,116.27272727272727,769.5702479338843,0.06370944123098111
178,117.56903765690376,768.4476987447699,0.0460159107446012
179,118.54185022026432,768.704845814978,0.027311772946983604
180,119.87128712871286,767.7524752475248,0.0030646500692578828
181,121.0,767.3269230769231,-0.011980739828748695
182,122.36627906976744,767.0697674418604,-0.04149112698163109
183,122.79591836734694,758.0204081632653,-0.06665510363506649
184,123.87234042553192,758.6808510638298,-0.1425790675520168
185,126.08823529411765,764.7867647058823,-0.08203282590300166
186,126.1063829787234,759.3829787234042,-0.2541742059182162
187,128.27927927927928,763.2972972972973,-0.13813327557355484
188,128.87272727272727,761.9818181818182,-0.36285910596819454
189,130.5625,761.4625,-0.03613495268290277
190,129.9090909090909,759.9090909090909,0.19071401791878534
191,132.62820512820514,759.4102564102564,0.24299922474128874
192,133.58536585365852,758.170731707317,0.3117693755387066
193,134.39240506329114,757.6582278481012,0.24053215648925158
194,135.42352941176472,756.9176470588235,0.1860814850008841
195,136.25531914893617,756.0106382978723,0.1700065626343218
196,137.3960396039604,755.009900990099,0.11767704578420109
197,138.26262626262627,754.7474747474747,0.10290176638281355
198,139.11650485436894,754.3883495145631,0.07207615071676192
199,140.0082644628099,752.99173553719,0.05558488305070827
200,140.890625,753.328125,0.04344184280831949
201,141.83941605839416,753.6277372262774,0.012107314549727426
202,142.84285714285716,752.3,-0.003425057447841487
203,143.5921052631579,752.6842105263158,-0.03886831424674304
204,144.54716981132077,751.9937106918239,-0.04404204791719874
205,145.26900584795322,751.0701754385965,-0.0635091677660083
206,146.13529411764705,751.4117647058823,-0.08417834907085059
207,146.9385474860335,750.5530726256983,-0.10465055303411583
208,147.7801047120419,750.6439790575917,-0.12197806153790114
209,148.6328502415459,749.903381642512,-0.1332338916159153
210,149.3475935828877,750.3582887700535,-0.15559887480649487
211,150.16964285714286,750.0267857142857,-0.17538561866579103
212,150.87441860465117,749.4744186046512,-0.19530576288927046
213,151.72687224669602,749.6828193832599,-0.22570516186615866
214,152.369918699187,749.8739837398374,-0.2398991951754816
215,153.35059760956176,750.2191235059761,-0.2734632188178614
216,153.94820717131472,750.3505976095618,-0.2996103166976659
217,154.53359683794466,749.9683794466403,-0.3238913545836568
218,155.24806201550388,750.0348837209302,-0.3674174923743846
219,156.05343511450383,750.9580152671756,-0.4000854798414975
220,156.6743295019157,751.3716475095786,-0.4504983238498193
221,157.38888888888889,751.515873015873,-0.4850051469753978
222,158.11111111111111,752.281746031746,-0.5509817031568147
223,158.84584980237156,753.0830039525691,-0.6141823883520698
224,159.58333333333331,753.6706349206349,-0.68576804577969
225,160.40637450199205,754.5258964143426,-0.7911544618172298
226,161.0316205533597,755.5770750988142,-0.9040608631631228
227,162.14522821576764,756.5103734439834,-1.0569098305182576
228,163.0239043824701,757.4462151394422,-1.240202953694236
229,163.66801619433198,758.6113360323886,-1.4917889099002852
230,164.79116465863456,759.8232931726908,1.3914662126362318
231,165.66536964980543,760.9299610894941,1.131336814018193
232,166.76953125,761.8671875,0.9865934451922683
233,167.70943396226414,763.0415094339622,0.857543718774783
234,168.68014705882354,764.1507352941177,0.7468364912843781
235,169.48496240601503,765.3195488721805,0.6599348898901605
236,170.8582089552239,765.9589552238806,0.5927448485185548
237,171.7826086956522,766.9710144927536,0.5357441446864932
238,173.00709219858157,767.677304964539,0.48629903478940545
239,174.23297491039426,768.078853046595,0.43845804445406744
240,175.36917562724014,768.8709677419355,0.39401052738010744
241,176.30555555555554,769.7395833333334,0.3621360063090024
242,177.70567375886526,769.7482269503546,0.3242681316845543
243,178.839590443686,770.1023890784983,0.3007326774898968
244,180.06529209621993,770.2817869415808,0.2597588843470966
245,181.15714285714284,770.6857142857143,0.2444063109522859
246,182.25172413793103,771.048275862069,0.22045873682959802
247,183.45985401459853,771.0985401459855,0.20257531496252565
248,184.6959706959707,771.0989010989011,0.18268076576050127
249,185.84814814814814,770.7222222222222,0.15541226347422862
250,186.98760330578511,770.9421487603306,0.14230265400583253
251,188.01600000000002,771.088,0.12627804825942307
252,189.31441048034935,769.5633187772926,0.10063451703948251
253,190.46153846153845,769.5427350427351,0.09317230326119089
254,191.50228310502283,769.730593607306,0.06689642968375208
255,192.72,768.715,0.047268864998166744
256,193.76923076923077,768.6586538461538,0.037251466248133636
257,194.9090909090909,768.1657754010695,0.006234992001871596
258,195.78089887640448,767.3988764044943,-0.007365662224679979
259,196.85454545454547,766.4303030303031,-0.027443461968112554
260,197.9625,766.0125,-0.0491754221172396
261,199.1118881118881,765.93006993007,-0.08004916786030108
262,200.04615384615386,765.0923076923077,-0.09644150092544418
263,201.008547008547,763.9487179487179,-0.1515043259478419
264,201.96226415094338,763.1509433962265,-0.17969517621285652
265,202.81188118811883,762.2772277227723,-0.1712370153782941
266,203.12244897959184,760.530612244898,-0.3817821880092975
267,204.7,759.9444444444445,0.024001584568146692
268,205.77528089887642,758.438202247191,0.2587026277613336
269,206.61111111111111,757.7888888888889,0.27703520622411093
270,207.10416666666669,757.0104166666666,0.30818434251045895
271,208.16161616161617,756.1616161616162,0.21628378348276353
272,208.75757575757575,755.3636363636364,0.19194674402288653
273,209.70338983050846,754.3898305084746,0.1633817571557182
274,210.29365079365078,754.0793650793651,0.12969390905594935
275,211.14492753623188,752.6739130434783,0.08746006423798956
276,211.7985074626866,752.9402985074627,0.07071104283402799
277,212.65734265734267,752.2517482517483,0.0642892675049187
278,213.29411764705884,751.964705882353,0.026514267834930504
279,213.90196078431373,752.0326797385621,0.014109316477470595
280,214.7659574468085,751.3829787234042,-0.0038535050472267326
281,215.44334975369458,750.0738916256157,-0.02295934854262627
282,216.0162162162162,749.8918918918919,-0.04111592407626424
283,216.77386934673365,749.5628140703518,-0.06217247830514231
284,217.31034482758622,749.5086206896551,-0.07255836600209727
285,218.1906779661017,749.8050847457628,-0.10436804967835839
286,218.67634854771785,748.896265560166,-0.1154888901246997
287,219.3755458515284,749.056768558952,-0.1296039797589955
288,219.98340248962654,749.01244813278,-0.14599666441626782
289,220.42412451361866,748.7704280155642,-0.168189705909446
290,221.1828793774319,749.1673151750973,-0.1946172234259048
291,221.9310344827586,749.0996168582376,-0.23116072540246793
292,222.26053639846742,749.2796934865901,-0.25134231416474245
293,223.19379844961242,750.2984496124031,-0.2734838575949153
294,223.57915057915056,749.9729729729729,-0.3098032170594025
295,224.09055118110234,750.3228346456693,-0.34567917795149217
296,224.60474308300394,750.5849802371541,-0.39218045907762605
297,225.39837398373982,751.540650406504,-0.43494675134841876
298,225.9139344262295,752.0368852459017,-0.49438084873881144
299,226.3875,752.7416666666667,-0.5662225685951511
300,227.15546218487395,753.6428571428571,-0.6319452950978992
301,227.81196581196582,754.3632478632478,-0.7369853947913424
302,228.44347826086957,755.3608695652174,-0.8389212080637651
303,229.16309012875536,756.4163090128756,-1.0012791872645406
304,229.73214285714286,757.46875,-1.2084360893361707
305,230.52678571428572,758.6607142857143,1.5620704922408333
306,231.42060085836908,759.8025751072961,1.1865858438931882
307,232.3872340425532,760.8936170212766,0.9872900100845572
308,233.2622950819672,762.0,0.8219033020420864
309,234.0731707317073,763.040650406504,0.73190374239799
310,234.9003984063745,764.1195219123506,0.6165710464973428
311,235.6547619047619,765.2579365079365,0.5650979457774802
312,236.6205533596838,766.197628458498,0.4935163691764092
313,237.44905660377358,767.1207547169811,0.4496611681527524
314,238.64684014869889,767.639405204461,0.40336815241596236
315,239.71641791044777,768.2126865671642,0.3710485126376587
316,240.69056603773583,768.6075471698114,0.33456598264217724
317,241.79553903345726,768.8364312267659,0.29698113102841195
318,242.5263157894737,770.0601503759399,0.2704825078972086
319,243.85185185185185,769.8481481481482,0.2395402247745167
320,244.81132075471697,770.1433962264151,0.21719554945086753
321,245.9917355371901,769.4421487603306,0.18574802030748952
322,247.0263157894737,769.812030075188,0.17667126422657606
323,247.88363636363636,769.9636363636364,0.1556319015741152
324,248.95330739299612,769.8949416342413,0.14551942483751962
325,249.9218106995885,770.3086419753087,0.11561642019060818
326,250.98728813559322,769.5932203389831,0.10221309727358904
327,252.0047619047619,769.504761904762,0.07500082926160202
328,253.05701754385964,769.0570175438596,0.06562724138591328
329,253.9313725490196,768.7107843137255,0.0349518700969556
330,255.02884615384616,768.7596153846154,0.021541920283848704
331,256.03015075376885,767.5678391959799,0.010785895877134846
332,256.875,767.8333333333334,-0.01341532164993715
333,257.6758241758242,766.4395604395604,-0.0326336726097746
334,258.77241379310345,765.9310344827586,-0.06547468696427552
335,259.7080291970803,765.2262773722628,-0.07750530900816467
336,260.35433070866145,764.2283464566929,-0.12768657020815802
337,260.0487804878049,757.4146341463414,-0.13171598257022038
338,262.2952380952381,763.2666666666667,-0.16934057308366726
339,263.0576923076923,762.9038461538462,-0.22802051064202838
340,263.950495049505,762.2277227722773,-0.2072708305695062
341,263.3243243243243,759.7567567567568,-0.5163053588171077
342,265.0,759.0,0.007352411188925716
343,266.56382978723406,758.2446808510638,0.1532460454523229
344,265.4193548387097,758.5806451612904,0.1768273094408323
345,267.78846153846155,756.1153846153846,0.2166949275224719
346,268.5840707964602,755.4690265486726,0.2071264979881287
347,269.13084112149534,754.3831775700935,0.16312625726561306
348,269.85087719298247,753.5175438596491,0.15808588892804404
349,270.4,752.72,0.09778374068541273
350,270.9618320610687,752.824427480916,0.0924484195359003
351,271.5374149659864,752.0544217687075,0.0719580087265922
352,272.24844720496895,751.2422360248447,0.03072089644313109
353,272.9290322580645,750.6774193548387,0.033692602748965544
354,273.47486033519556,750.927374301676,0.005643339866525158
355,273.97512437810946,749.820895522388,-0.015358930082066444
356,274.7340425531915,750.1542553191489,-0.023635618362049134
357,275.2552083333333,748.5625,-0.04257801838870087
358,275.8,749.0731707317074,-0.05973319455434263
359,276.42439024390245,749.3560975609756,-0.06982470015852663
360,276.91346153846155,748.5480769230769,-0.09204872933798337
361,277.4727272727273,748.8181818181818,-0.11139916987456744
362,277.8987854251012,748.251012145749,-0.1215459119152922
363,278.5890410958904,748.6118721461187,-0.13976881896313728
364,279.0431034482759,748.0344827586207,-0.15577492212457575
365,279.6058091286307,748.6182572614108,-0.1765543136484389
366,280.0775510204082,748.3265306122449,-0.20461980190192267
367,280.58898305084745,748.2838983050848,-0.23315319368636264
368,281.0322580645161,748.6935483870968,-0.2649433088509487
369,281.594262295082,748.9262295081967,-0.28620817281201105
370,282.2938775510204,749.869387755102,-0.3082140298664698
371,283.04661016949154,750.6144067796611,-0.35875576618884775
372,283.2360515021459,750.5622317596567,-0.40039803967707344
373,283.84375,750.9866071428571,-0.43591324799115916
374,284.47747747747746,751.9549549549549,-0.5107267718869769
375,284.97222222222223,752.5509259259259,-0.574155610580648
376,285.5260663507109,753.4075829383886,-0.6631437554155492
377,286.1090047393365,754.2938388625593,-0.7645441498711203
378,286.4805825242718,755.247572815534,-0.867410569562802
379,287.12857142857143,756.3761904761905,-1.1326630277608722
380,287.9805825242718,757.5291262135922,-1.4771264519996665
381,288.7582938388625,758.7914691943128,1.1622895628103402
382,289.62910798122067,759.7840375586854,0.8813884209415557
383,290.2672811059908,761.0230414746544,0.7732985020146766
384,291.675,761.9125,0.6817315827008342
385,291.8377192982456,763.2543859649122,0.5799551575162768
386,292.7758620689655,763.9698275862069,0.5024128475341348
387,293.7167381974249,765.1716738197425,0.44328339724973087
388,294.41818181818184,765.8272727272728,0.4122094785163444
389,295.50204081632654,766.2816326530613,0.3636399991348371
390,296.26033057851237,767.305785123967,0.32121642415049817
391,297.31304347826085,767.4869565217391,0.289482678229063
392,298.248,767.9,0.2575416011838342
393,299.13617021276593,768.2297872340425,0.23726648384243781
394,300.008,768.668,0.2029852271285687
395,300.97991967871485,768.8072289156627,0.18112504750988984
396,301.9875518672199,768.8423236514523,0.1682236550255859
397,302.73061224489794,769.4530612244898,0.1428283412291
398,303.66255144032925,769.6913580246913,0.12528417853163193
399,304.72645739910314,768.5022421524664,0.10949468554793854
400,305.6266094420601,768.8540772532189,0.09381778403532305
401,306.4319248826291,769.1361502347418,0.07346108039172193
402,307.3252427184466,768.5970873786408,0.05956870687119708
403,308.2676767676768,768.7171717171717,0.041996674811532
404,309.0979381443299,767.6443298969073,0.025582727495882075
405,310.01612903225805,767.505376344086,0.018170752382062016
406,310.8253012048193,767.1084337349398,-0.0019409205889135014
407,311.55555555555554,765.9150326797386,-0.014360820675758662
408,312.3851351351351,766.0878378378378,-0.03578490544203582
409,313.0,759.7816091954023,-0.08023366769942865
410,314.1818181818182,765.4318181818182,-0.07234334254546934
411,314.9473684210526,764.781954887218,-0.10057968066432262
412,315.76666666666665,763.85,-0.10819716716446966
413,316.4403669724771,762.743119266055,-0.1573727578880546
414,317.3265306122449,762.030612244898,-0.20075323309518522
415,318.00970873786406,761.495145631068,-0.21831183782084923
416,318.2826086956522,759.4347826086956,-0.3539362537716677
417,319.61290322580646,759.3870967741935,-0.2149970847591017
418,320.109756097561,758.560975609756,-0.059741719036500704
419,320.9010989010989,757.1868131868132,0.17228104832060886
420,321.56976744186045,755.9767441860465,0.19782288580431204
421,322.22429906542055,755.2429906542056,0.16562119910241002
422,322.5631067961165,754.7572815533981,0.1333620123263431
423,323.2583333333333,754.025,0.1251793554334338
