FrameNo,Row,Column,Angle
1,38.163636363636364,825.2,0.5962979933432632
2,39.32017543859649,825.2061403508771,0.4831488864968828
3,40.719298245614034,824.0526315789474,0.4251101961230621
4,42.42920353982301,823.8539823008849,0.27275177615705215
5,44.166666666666664,823.130081300813,-0.04781630640531634
6,45.89626556016597,822.6804979253112,-0.3757495509047624
7,47.28846153846154,822.1538461538462,-0.3971145312982535
8,49.07636363636364,821.4509090909091,-0.42631944546999795
9,50.95035460992908,821.4929078014185,-0.39008626005047514
10,52.144295302013425,820.7046979865772,-0.40665299013947565
11,53.965732087227416,820.6542056074767,-0.38183046163894563
12,55.679127725856695,820.3271028037383,-0.38113988853282504
13,57.06104651162791,820.2761627906976,-0.36308992617699326
14,58.77906976744186,819.7005813953489,-0.3505988052201805
15,60.32258064516129,819.3709677419355,-0.34569200846064935
16,61.82058047493404,819.3087071240105,-0.34570427403761056
17,63.46456692913386,819.3490813648294,-0.3223508722219404
18,65.23696682464455,817.2298578199052,-0.23435333713424888
19,66.8025,819.2475,-0.32357771307674216
20,68.21090047393365,819.0473933649289,-0.32681256954698745
21,70.05097087378641,819.2208737864078,-0.33041530865049457
22,71.77721518987342,819.4962025316456,-0.3201742927646797
23,73.56221198156682,819.8617511520738,-0.3508753409282966
24,74.78117647058824,819.3835294117647,-0.3409777205283537
25,76.64179104477611,820.7860696517413,-0.3268771210760623
26,78.35817307692308,820.8149038461538,-0.3414936735983702
27,79.77664974619289,821.1700507614213,-0.3338116475401957
28,81.8632911392405,822.1316455696202,-0.3387640061870926
29,82.8375,821.3225,-0.35574860704231315
30,86.41132075471698,826.5320754716981,-0.34753175441652046
31,89.685,830.845,-0.3486416924781074
32,88.1219512195122,823.405487804878,-0.378346401287362
33,88.5934065934066,821.1236263736264,-0.3928999769490164
34,90.0,821.0,-0.4107110004492957
35,90.63495575221239,819.3008849557522,-0.41398938163716514
36,92.27839643652561,820.2383073496659,-0.4296946586118786
37,93.22431865828092,819.7672955974842,-0.4309845064474584
38,94.86752136752136,820.0448717948718,-0.4513883561564884
39,96.65853658536585,821.6910569105692,-0.45148053779300806
40,97.57792207792208,820.6969696969697,-0.4878963856719645
41,99.45054945054945,821.7604395604395,-0.5080611833788125
42,100.54101995565411,821.7450110864745,-0.5322973287564442
43,101.96976241900649,822.1792656587473,-0.5617583759909807
44,103.41280353200882,822.5938189845475,-0.5779996422990288
45,104.03455284552845,823.5548780487804,-0.6718991617103288
46,106.63034188034187,824.1495726495726,-0.6734356236759318
47,107.79333333333334,824.5511111111111,-0.7013022054170499
48,109.50229357798165,825.3440366972477,-0.764599994113356
49,110.4590909090909,825.8409090909091,-0.8102692995702114
50,111.96904761904761,826.547619047619,-0.866869416589031
51,113.50847457627118,827.3946731234867,-0.9370161723463227
52,114.81603773584905,827.941037735849,-1.0168832970717867
53,116.30243902439024,829.0536585365853,-1.129484826606382
54,117.52439024390245,829.8487804878049,-1.2544042422461399
55,119.22716627634661,831.0093676814988,-1.3408480642760494
56,120.90610328638498,832.0164319248827,-1.4995722886752763
57,122.3177570093458,833.1542056074767,1.5054791758399126
58,124.203125,834.1540178571429,1.3015016906503956
59,125.53794642857143,835.3995535714286,1.1750958659229425
60,127.05668016194332,837.1295546558705,0.839624692239919
61,128.82758620689657,837.3426724137931,0.9273153729236743
62,130.35112936344967,838.2197125256673,0.8065321591092522
63,132.03992015968063,839.0239520958083,0.7405989205226771
64,133.5199203187251,839.7589641434263,0.6731156350517598
65,135.98529411764707,840.7316176470588,0.6895350523101785
66,136.5092936802974,841.585501858736,0.5724691402835379
67,138.21763602251406,842.6153846153846,0.5288983234413539
68,139.96139705882354,842.9724264705883,0.4995072578040649
69,141.54676258992805,843.7841726618705,0.46016376100467904
70,143.0421792618629,844.4639718804921,0.43253058767515945
71,144.76896551724138,845.1879310344827,0.42359594198833245
72,146.14081996434936,845.789661319073,0.3828192425142714
73,147.78345070422534,846.0739436619718,0.35717242866016974
74,149.01769911504425,847.5504424778761,0.340014843056065
75,150.9858407079646,847.1150442477876,0.3301196510223566
76,152.4607142857143,847.3625,0.3175261850735032
77,153.77345132743363,848.5309734513274,0.30352385397901727
78,155.618018018018,848.1189189189189,0.2948326263386847
79,157.02747252747253,848.6153846153846,0.2911541818207011
80,158.58747697974218,848.8563535911602,0.27520724748426995
81,160.26315789473682,848.4586466165414,0.26569883402785593
82,161.83945841392648,848.4603481624758,0.2611551792711677
83,163.2783300198807,848.6163021868788,0.26414362505158995
84,164.88501026694047,848.7392197125257,0.25378804119937876
85,166.2494669509595,848.773987206823,0.26104030472443857
86,167.85267857142856,848.2299107142857,0.23728936843455262
87,169.42280285035628,848.2470308788598,0.2515516509537084
88,171.126582278481,847.4177215189874,0.2497377836643017
89,172.66855524079318,846.8328611898017,0.2536354360100626
90,174.5494880546075,845.0,0.2470870222834789
91,176.38970588235293,843.5294117647059,0.2554427196639361
92,178.57070707070707,841.2626262626262,0.2505863966171942
93,180.55714285714288,839.0428571428572,0.26813547906862506
94,180.7090909090909,843.8045454545454,0.2963296954770331
95,181.38016528925618,846.0,0.32161883725678925
96,182.68548387096774,846.4556451612904,0.34797251142894103
97,184.01293103448276,846.1336206896551,0.36281980807322173
98,185.44214876033058,845.9462809917355,0.4005654593664259
99,186.5787037037037,845.6944444444445,0.4724315253973577
100,188.05581395348838,845.4,0.43892857584534006
101,189.29353233830847,844.9452736318408,0.38190688313884036
102,191.00485436893206,843.6844660194174,0.3551262303308328
103,192.2325581395349,843.0093023255814,-0.054038651362034916
104,193.78481012658227,842.3459915611814,-0.2744076430462537
105,195.09166666666667,842.0083333333333,-0.3027263692817672
106,196.29277566539923,841.3726235741444,-0.24016647624433118
107,197.74721189591077,840.7955390334572,-0.23400234490526609
108,198.87118644067795,840.2372881355932,-0.2564248294661193
109,200.04635761589404,839.3907284768212,-0.2632579188781214
110,201.66666666666669,839.8848484848485,-0.23312095813834616
111,202.96941896024464,839.6880733944954,-0.2066857227031239
112,204.36257309941521,839.0906432748538,-0.21784173597529885
113,205.7348703170029,839.0461095100865,-0.21336219073942936
114,207.03753351206433,839.6756032171581,-0.17915482593503532
115,208.21522309711287,838.6876640419947,-0.18969084523103322
116,209.5858585858586,839.3939393939394,-0.18605242432236876
117,210.9607329842932,839.1570680628272,-0.19709613818301253
118,212.43076923076922,839.6871794871795,-0.20312773919953026
119,213.82,840.5375,-0.2017015984649816
120,215.17663817663816,841.3447293447293,-0.20440369379298606
121,216.3733681462141,840.9060052219321,-0.21238943126772566
122,217.7837837837838,841.9621621621621,-0.20756441050765084
123,219.12533333333334,842.248,-0.21625806226447475
124,219.67519181585678,839.6879795396419,-0.23226291427091234
125,223.15720524017468,848.9039301310044,-0.21930809898580889
126,222.0253807106599,840.1624365482234,-0.2523942725366339
127,222.84541062801932,839.3478260869565,-0.2640885347843015
128,224.11031175059952,839.9280575539568,-0.2665851125102061
129,224.93617021276594,839.451536643026,-0.2794619594755073
130,226.22300469483568,840.1901408450705,-0.3004164648803444
131,227.2564705882353,840.0917647058824,-0.31255152471830977
132,228.73529411764707,841.4683257918552,-0.3417335188034489
133,229.4200477326969,841.3341288782816,-0.3627861289261444
134,230.72815533980582,842.0194174757281,-0.3890527446788379
135,231.8833746898263,843.0620347394541,-0.42273410385063026
136,232.85111662531017,843.3424317617867,-0.46080938661197546
137,234.26943005181346,844.4974093264249,-0.48597255509922077
138,235.19379844961242,845.1524547803617,-0.5534815690989522
139,237.6848635235732,847.8808933002481,-0.6321164774795845
140,238.90841584158414,847.8514851485148,-0.8083949276318059
141,238.94025974025973,846.9038961038962,-0.7513985029638387
142,239.32558139534882,848.5726744186046,-0.9431252440691575
143,241.51612903225805,850.9702233250621,-0.8311716127220552
144,242.06162464985994,851.546218487395,-1.3624103346425454
145,242.44050632911393,851.8329113924051,-1.2583146219538595
146,242.4860465116279,854.546511627907,1.2268266269763055
147,246.24371859296483,854.9321608040201,0.934945064658065
148,247.03980099502488,856.405472636816,0.7824443137121427
149,248.29166666666669,857.4142156862745,0.6856769582497856
150,249.47652582159623,858.6877934272301,0.5970430339472791
151,250.8337182448037,859.2725173210162,0.5460246940985845
152,252.33707865168537,860.0404494382022,0.5028850669126038
153,253.12473572938688,861.5623678646934,0.4766860090376423
154,254.51111111111112,861.2848484848485,0.40402378238724995
155,255.72708757637474,863.4195519348269,0.3988606123211899
156,257.2536082474227,863.4020618556701,0.3749838213114565
157,258.3882113821138,864.369918699187,0.3463420862011747
158,259.7065868263473,864.7784431137725,0.3308669964619082
159,260.8612244897959,865.3489795918367,0.32118827674743966
160,262.4033771106942,866.4540337711069,0.25549488131464293
161,263.4491869918699,866.0813008130082,0.2867475641127826
162,264.7125748502994,866.2994011976048,0.28246573552511883
163,266.14376321353063,866.431289640592,0.2756052141778808
164,266.93548387096774,867.070564516129,0.27314908322437625
165,268.6602564102564,866.6495726495726,0.25970547285918444
166,270.05925925925925,865.5086419753086,0.2421322990592837
167,271.1801801801802,865.9211711711712,0.2425548084825873
168,272.1814058956916,866.6054421768707,0.24466703922243052
169,274.8136882129278,861.1634980988593,0.22370408956204196
170,275.1597796143251,864.4738292011019,0.24787517978649368
171,276.71253822629967,863.1345565749235,0.2652486896450884
172,278.33976833976834,861.1428571428571,0.25275179691055794
173,279.8026315789474,860.2587719298245,0.2627646757629228
174,280.9269406392694,860.337899543379,0.27764353877649395
175,280.728813559322,865.2101694915254,0.27598503598577107
176,282.41777777777776,862.9288888888889,0.3166797821289633
177,282.71478873239437,865.7605633802817,0.3053797318528005
178,283.67537313432837,865.5298507462686,0.34593291722392716
179,285.2007874015748,864.6338582677165,0.32683113315660084
180,286.3122362869198,864.1814345991561,0.39090493147566724
181,287.1538461538462,864.3076923076923,0.4148297976308809
182,288.2325581395349,863.6232558139535,0.40150393614970226
183,289.5023923444976,862.7224880382776,0.24051013512541852
184,290.6367924528302,861.8066037735849,0.10761263619249983
185,291.9603524229075,861.0264317180616,-0.3731187716985914
186,292.95652173913044,860.1391304347826,-0.28195725793156134
187,293.859437751004,859.7991967871486,-0.3117525350701117
188,294.3257328990228,859.6416938110749,-0.12335776069476487
189,296.2607142857143,858.6571428571428,-0.23078180407679066
190,297.25,857.9321428571428,-0.18046602516631288
191,298.60677966101696,858.3559322033898,-0.2094381539988557
192,299.35806451612905,857.2838709677419,-0.20251818301891275
193,300.49848942598186,857.1570996978852,-0.17239449794193135
194,301.7207977207977,857.8005698005697,-0.17692653546708353
195,302.7647058823529,857.2941176470588,-0.16946677410255637
196,303.95953757225436,857.864161849711,-0.14862704278031783
197,304.9613095238095,858.2172619047619,-0.15540458366158572
198,305.9581005586592,858.1424581005587,-0.15059846271543412
199,307.00824175824175,858.9642857142857,-0.1398586928173474
200,308.06997084548107,859.2157434402333,-0.15280306928481974
201,309.3343653250774,859.9442724458204,-0.14596844902615402
202,309.812030075188,857.5438596491229,-0.16807819402138102
203,310.90263157894736,858.3578947368421,-0.1619143079782409
204,311.8682634730539,858.4910179640718,-0.17069822914531377
205,312.8313609467456,859.0295857988166,-0.1714679788736455
206,313.3960396039604,857.3019801980198,-0.17617931944912868
207,314.25061425061426,857.5282555282555,-0.1752571092094692
208,315.19711538461536,858.2067307692307,-0.19048267210191883
209,316.2457831325301,858.1253012048193,-0.19797904103862318
210,317.01781170483457,858.0458015267176,-0.21984328635883407
211,318.31797235023043,858.0714285714286,-0.21694881118308332
212,318.920424403183,859.0822281167109,-0.24284279105207404
213,319.88010899182564,859.9591280653951,-0.261010309009013
214,320.8630573248408,861.4713375796179,-0.30324351364582286
215,321.73463687150837,861.4944134078212,-0.34594566092650053
216,322.42857142857144,861.9504373177842,-0.3523001946490355
217,323.3575581395349,862.4883720930233,-0.34671317506142274
218,324.15625,863.9,-0.46408413960752243
219,324.0,863.6899696048632,-0.5951692789590678
220,325.9342105263158,865.9736842105264,-0.5629893980882082
221,326.8474576271186,867.4203389830509,-0.6246211626741586
222,327.83972125435537,868.4146341463414,-0.6944541554101498
223,328.8719723183391,869.961937716263,0.7399682473166057
224,329.5681818181818,871.672077922078,0.6556885235606801
225,330.5755627009646,872.7845659163987,0.5846920492256156
226,331.7962382445141,873.6300940438871,0.5675811868327675
227,332.62241887905606,874.8230088495575,0.5073426537591538
228,333.6542857142857,875.8114285714286,0.46528809927467263
229,334.6060606060606,876.7465564738292,0.41902264854201415
230,335.6505376344086,877.733870967742,0.39061505984918166
231,337.30602409638556,876.7036144578313,0.3683130110278455
232,337.55583756345175,878.9619289340102,0.36729628344875687
233,338.43095238095236,880.0190476190476,0.34085495540516036
234,339.628841607565,880.3640661938534,0.31356284155108244
235,340.3640552995392,881.168202764977,0.306931178558516
236,341.3797169811321,881.4198113207547,0.28587999014411397
237,342.614849187935,881.2830626450116,0.2779311301641249
238,343.53881278538813,881.7739726027397,0.2785532240076306
239,344.40281030444964,882.2903981264637,0.25794700651938435
240,345.70631067961165,881.4733009708738,0.25650124625191767
241,347.0833333333333,879.9086021505376,0.25360695623565943
242,348.0376344086021,879.6505376344086,0.25603486421608374
243,349.06876790830944,879.6275071633238,0.24699572312380497
244,350.3343373493976,878.6716867469879,0.25828138265475453
245,351.63940520446096,877.0520446096655,0.2471317478628691
246,353.0866141732283,875.4212598425197,0.2604298765306546
247,352.2035928143713,882.062874251497,0.25907912918345144
248,354.25,877.6969696969697,0.270724358847016
249,355.88516746411483,875.6267942583733,0.28305429916079355
250,354.8323699421965,882.5549132947976,0.29284129706597906
251,355.4952978056426,882.5360501567399,0.2931539652733873
252,356.51147540983607,882.1049180327868,0.3120884325432555
253,357.625,881.8486842105264,0.3311651594688214
254,358.4755244755245,881.3041958041958,0.35702097760456986
255,359.4962962962963,880.825925925926,0.36345454005340516
256,360.0952380952381,881.0357142857143,0.41655485497799655
257,361.20920502092054,880.5899581589958,0.4276707847099362
258,361.47210300429185,880.7296137339056,0.4991809228070933
259,362.87214611872145,879.3561643835617,0.3627731696160533
260,363.71493212669685,878.1945701357466,0.19621012188751846
261,365.018018018018,877.0,-0.1434582277872238
262,365.579185520362,876.2217194570136,-0.2796483997653828
263,366.63179916317995,875.7573221757323,-0.2537330575964914
264,367.88212927756655,875.1482889733841,-0.23899213545516487
265,368.65055762081784,874.360594795539,-0.2081767760322159
266,369.60069444444446,874.2604166666666,-0.1882815381908054
267,370.45051194539246,873.6143344709898,-0.1677154839873264
268,371.2671009771987,873.0293159609121,-0.15011249234890606
269,372.10179640718565,873.2185628742515,-0.11736349822713253
270,373.03790087463557,873.1574344023323,-0.12450459185031855
271,373.8985507246377,873.0376811594203,-0.1300115767223136
272,374.9787878787879,873.769696969697,-0.10821353675435443
273,375.85632183908046,873.3189655172414,-0.10176477900430732
274,376.7151162790698,874.2093023255813,-0.0915968893337998
275,377.7627118644068,874.6892655367232,-0.09709449105549929
276,378.31179775280896,875.0168539325842,-0.07955211657430511
277,379.13569321533924,874.2330383480826,-0.09907973096830704
278,379.8031496062992,872.5301837270341,-0.0924232260776578
279,380.7109375,872.4296875,-0.09961345828598378
280,381.5491329479769,873.7803468208092,-0.10639072272027733
281,382.2474489795918,872.4770408163265,-0.12099024765732486
282,382.82097186700764,872.2762148337596,-0.11075863189577217
283,383.4713541666667,872.7734375,-0.10654602317119523
284,384.29333333333335,873.1306666666667,-0.11682916785076558
285,385.0527704485488,872.7941952506596,-0.12132333278851998
286,385.9251336898396,874.2326203208556,-0.12025670337761345
287,386.59943977591035,874.5434173669468,-0.14866972852085136
288,387.2808988764045,874.938202247191,-0.16442585354514508
289,388.0385756676558,875.2878338278932,-0.16303347548484554
290,388.74018126888217,876.429003021148,-0.18080172207056897
291,389.7080745341615,877.3291925465838,-0.2142499722049473
292,390.3605015673981,878.3291536050157,-0.24160294103589555
293,390.40445859872614,879.3980891719746,-0.2268917229470822
294,391.0287539936102,879.8338658146965,-0.4006530946267933
295,392.13229571984436,880.6070038910506,-0.29781354572126795
296,392.5748031496063,881.6181102362204,-0.3694219806694966
297,393.3861788617886,882.8577235772358,-0.33387499044683494
298,394.3524590163934,884.6147540983607,0.29808729259937294
299,395.011583011583,885.965250965251,0.4178276640744793
300,395.9547169811321,887.3660377358491,0.48069510931173043
301,396.57875457875457,888.2600732600732,0.5083670065222979
302,397.2650176678445,889.1060070671379,0.4709246177000089
303,397.9865771812081,890.4496644295302,0.40838558238938494
304,398.6583850931677,891.3354037267081,0.3866318681300177
305,399.54777070063693,892.0350318471337,0.3599102572787138
306,399.8477611940299,893.5582089552239,0.34844821522881214
307,401.12573099415204,893.1491228070175,0.3338574998392919
308,401.80172413793105,893.9396551724138,0.31255266194049686
309,402.8898550724638,893.5884057971015,0.29425328929390093
310,403.4483695652174,894.5923913043479,0.29213895048810024
311,404.44864864864866,893.8405405405406,0.283182532456779
312,405.4344262295082,893.724043715847,0.2825906934281818
313,405.82115869017633,895.4181360201511,0.2769239518570672
314,406.4102564102564,895.9641025641025,0.26668590720776336
315,407.63905325443784,894.396449704142,0.2579762714886132
316,408.2664835164835,895.1263736263736,0.26944063749088776
317,408.3643031784841,897.6161369193154,0.2656839582684864
318,409.5040431266846,896.3638814016173,0.2681469381034445
319,412.9431279620853,887.0900473933649,0.2869593887423306
320,410.4761904761905,898.0977443609022,0.2748121356275086
321,411.39447236180905,897.6884422110553,0.2750525919943002
322,411.96305418719214,898.4876847290641,0.2838959087666708
323,412.76190476190476,897.9248120300751,0.29489455776765783
324,413.5,897.6236559139785,0.2947841189125324
325,414.3142076502732,897.4945355191256,0.30857968779834427
326,415.82216494845363,896.2216494845361,0.3636031629659861
327,415.685393258427,897.0421348314607,0.3261716335850515
328,416.55988023952096,896.6047904191616,0.34286062530683653
329,417.5791139240506,895.7405063291139,0.37220424922764195
330,417.956228956229,895.7407407407408,0.40181593280764843
331,418.9490909090909,894.8872727272727,0.4166217595113823
332,419.2641509433962,894.9358490566037,0.4497373205197133
333,420.052,894.376,0.5209489738920825
334,420.9623430962343,893.5020920502092,0.5596543744580921
335,423.42911877394636,893.0268199233717,-1.300403885788292
336,422.92727272727274,891.5318181818182,0.012908538894734665
337,423.7339055793991,890.5922746781116,-0.30405407010183155
338,424.5593220338983,889.9322033898305,-0.2687641441700545
