FrameNo,Row,Column,Angle
26,4.823529411764706,782.9411764705883,-0.19832281654643033
27,6.092436974789916,783.6050420168067,-0.23767332460155544
28,6.674698795180723,780.1867469879518,-0.23371337137158538
31,8.25,771.6176470588235,-0.2869727803460501
32,9.508417508417509,771.8720538720538,-0.30163896367908893
33,10.381756756756756,770.6655405405405,-0.31986748346348853
34,11.426282051282051,770.4551282051282,-0.341010220065272
35,12.887820512820513,771.3237179487179,-0.36687445327925877
36,13.862068965517242,770.8275862068965,-0.3977432174934013
37,15.152597402597403,771.2694805194806,-0.4325542632367738
38,15.941358024691358,770.7777777777778,-0.4614730583459781
39,17.302180685358255,771.2710280373832,-0.49818130175836367
40,18.584615384615386,772.1353846153846,-0.5313980883261225
41,19.819314641744548,772.0903426791277,-0.5966378707509901
42,20.68421052631579,772.1269349845202,-0.6754962204098345
43,21.90764331210191,772.5382165605096,-0.728324634546453
44,23.155629139072847,773.0629139072847,-0.7986023871800632
45,24.42628205128205,773.6442307692307,-0.8902922662391005
46,25.639344262295083,774.255737704918,-0.9941484193106743
47,26.245098039215687,774.3594771241831,-1.1626697240188013
48,27.817275747508305,775.2624584717607,-1.3087677169943384
49,29.035598705501616,776.0550161812298,-1.5013894968619326
50,30.216828478964402,776.9126213592233,1.463147242568868
51,31.770642201834864,777.65749235474,1.2533620821214428
52,32.90149253731343,778.0268656716418,1.157819634774732
53,34.367952522255194,779.1008902077151,0.9667374674711193
54,35.967930029154516,779.6880466472303,0.8697425068372918
55,37.12222222222222,780.4333333333334,0.7678368862811931
56,38.65459610027855,780.7799442896936,0.702119622377638
57,39.96205962059621,781.4444444444445,0.6456349321075393
58,41.71128608923885,781.8241469816273,0.5764544048578112
59,42.84293193717277,782.4607329842931,0.5381337364330969
60,44.9106699751861,782.3250620347394,0.5141102891288094
61,45.72222222222222,783.1994949494949,0.4599027216890684
62,47.39119170984456,783.041450777202,0.4200679476761173
63,48.46305418719212,783.7339901477833,0.4032800422109852
64,50.279620853080566,783.9431279620853,0.3632622889469234
65,51.29197080291971,784.2846715328467,0.3479541445476653
66,53.186397984886646,783.6599496221662,0.32372560572709114
67,54.321608040201006,784.1683417085427,0.3086545118155531
68,55.65185185185185,784.4246913580247,0.29254219126660486
69,57.25831202046036,783.8721227621484,0.27559276371622365
70,58.6710875331565,783.4376657824934,0.2561143896316146
71,60.184986595174266,783.201072386059,0.24323485886344096
72,61.48189415041783,783.125348189415,0.23332543872951603
73,62.82432432432432,783.0378378378379,0.21970300044410848
74,64.2022792022792,782.977207977208,0.20879485060069491
75,65.55384615384615,782.28,0.20289347369999333
76,67.26537216828478,781.0161812297735,0.19631768466742847
77,68.37209302325581,780.7873754152824,0.18452903991687847
78,71.61702127659575,768.4574468085107,0.2057991503321227
79,71.03968253968254,779.9642857142857,0.16719330982427158
80,72.50393700787401,778.6181102362204,0.17240668204510748
81,75.1829268292683,768.719512195122,0.1674475365818425
82,75.11004784688996,777.4066985645933,0.165724852732119
83,77.58227848101266,769.1645569620254,0.22980036859421435
84,77.83108108108108,775.581081081081,0.16825017526023447
85,80.0,769.5,0.21290997814514942
86,80.5,773.4464285714286,0.1705046065480991
87,81.55140186915888,773.6542056074767,0.20830253819291972
88,83.13829787234043,772.7021276595744,0.25824702561433255
89,84.1413043478261,771.695652173913,0.21954475742696905
90,85.36458333333333,770.59375,0.12820741789353451
91,86.79207920792079,769.4158415841584,0.12663122890693085
92,87.929203539823,768.2566371681417,-0.011126503346173456
93,88.76865671641791,767.5671641791045,-0.06701363228275864
94,90.24264705882354,766.875,-0.10090075932916857
95,91.40506329113924,765.8291139240506,-0.09330816408619758
96,92.26470588235294,764.9176470588235,-0.06367236367041333
97,93.27322404371584,763.5792349726776,-0.08509400869800121
98,94.68367346938776,763.6479591836735,-0.13120783372363148
99,95.85405405405406,763.3189189189189,-0.10990727384794287
100,96.75909090909092,762.1863636363637,-0.12636645357923257
101,97.89954337899543,761.8493150684932,-0.11526060971009194
102,99.17333333333333,762.0266666666666,-0.14091267696690174
103,99.89112903225806,760.9596774193549,-0.1393497810464695
104,101.38461538461539,761.5854700854701,-0.12802570811913574
105,102.15163934426229,760.938524590164,-0.14483956015023405
106,103.51658767772511,761.5071090047393,-0.1569981913001442
107,104.68181818181819,761.2561983471074,-0.1658973661029376
108,105.52941176470588,760.844537815126,-0.18657426145936185
109,106.23076923076923,759.2423076923077,-0.18143744147114566
110,109.30075187969925,768.4887218045112,-0.18982972678722038
111,108.02592592592593,757.4703703703703,-0.2157637148323609
112,108.95904436860069,757.2491467576792,-0.2327013682938676
113,109.94464944649447,757.0738007380073,-0.2498400897083601
114,110.8671096345515,756.9933554817276,-0.26932930088791557
115,111.75,756.6722972972973,-0.27921058344029415
116,112.63545150501672,756.6655518394649,-0.3031225314362326
117,113.69009584664536,756.7156549520766,-0.3173211280500484
118,114.27760252365931,756.4069400630915,-0.3596202619279062
119,115.4247491638796,756.9832775919732,-0.3940136641718593
120,116.24161073825503,757.0436241610738,-0.4369708612653573
121,117.13870967741936,757.7870967741935,-0.4646196309571039
122,118.51546391752578,758.1134020618557,-0.5269128636433291
123,118.58585858585859,757.6835016835017,-0.6130287764435727
124,120.1602787456446,758.8919860627178,-0.6604422583134785
125,120.64620938628158,759.057761732852,-0.7597097893501075
126,122.0,759.8555133079848,-0.8770531924797254
127,122.7032967032967,760.8241758241759,-1.0288661993282626
128,123.73033707865169,761.4157303370787,-1.3024059780288177
129,125.06593406593407,762.2893772893773,1.542564748450497
130,126.01086956521739,763.2971014492754,1.1590301209652543
131,127.20071684587813,764.1146953405018,0.8932420941833409
132,128.23310810810813,765.0506756756756,0.7778472780529703
133,129.66440677966102,765.5389830508475,0.6597286702085539
134,130.60066006600658,766.4059405940594,0.5978116543970166
135,131.81372549019608,766.8725490196078,0.5166280341280717
136,133.01572327044025,767.4685534591194,0.4692200139435393
137,134.04334365325076,768.343653250774,0.419301132489332
138,135.23511904761904,768.5267857142857,0.37585504115812235
139,136.39367816091954,768.6810344827586,0.3476427471327202
140,137.54415954415953,769.8746438746439,0.30781441839629486
141,138.8385269121813,769.5099150141643,0.29360528180174694
142,139.86725663716814,769.7522123893805,0.2678508079079947
143,141.06515580736544,770.0509915014164,0.2454810159705598
144,142.37988826815644,769.8128491620112,0.23117657398218466
145,143.38192419825072,769.7026239067055,0.20043439612782565
146,144.47683923705722,769.9972752043597,0.1903212544182298
147,145.84802431610942,769.4893617021277,0.18172966378258024
148,147.05059523809524,769.577380952381,0.169710701801279
149,147.98776758409787,769.0672782874618,0.1556057219251701
150,149.37459283387622,768.2149837133551,0.15627178224233618
151,150.5858585858586,767.8989898989898,0.1392983542445885
152,151.65591397849462,767.0645161290322,0.12306050628885741
153,152.57037037037037,767.3074074074074,0.12080140024811531
154,153.49621212121212,766.685606060606,0.10854235217132657
155,154.7866108786611,765.2008368200836,0.10578950662774851
156,156.46428571428572,760.4142857142857,0.10713173009225352
157,157.8181818181818,756.070707070707,0.08448879394941179
158,158.67948717948718,756.0384615384615,0.08144424440453116
159,159.65753424657532,755.3287671232877,0.0750921897117229
160,160.11023622047244,761.6456692913385,0.09782251062315976
161,161.578125,756.140625,0.05276332545454703
162,162.2087912087912,758.934065934066,0.09386777302048331
163,163.61111111111111,758.5555555555555,0.1148237913939636
164,164.44444444444446,757.0,0.06913630044275453
165,165.2051282051282,756.0128205128206,0.004474633980345905
166,166.20454545454544,755.2159090909091,0.045504797995658416
167,167.10476190476192,754.3809523809524,-0.024868415362462728
168,167.828125,753.03125,-0.02746254922523579
169,168.7984496124031,752.5581395348837,-0.07623949743052909
170,169.85906040268458,752.4093959731543,-0.098826449881276
171,170.6474358974359,751.224358974359,-0.09428109696845237
172,171.84177215189874,750.4493670886076,-0.10278774730690877
173,172.42857142857144,749.7637362637363,-0.09671679465315514
174,173.06091370558374,748.6192893401015,-0.1072682229227069
175,174.1367924528302,747.7830188679245,-0.09478429354342265
176,174.9950980392157,748.6323529411765,-0.12284843771020736
177,175.80434782608694,747.8086956521739,-0.137334657770079
178,177.35031847133757,752.1847133757962,-0.13260814563030457
179,177.7386934673367,748.8743718592965,-0.1409618446934048
180,178.4139534883721,748.2,-0.1500481711318052
181,178.8059701492537,745.0634328358209,-0.16269096462088584
182,179.63035019455253,744.84046692607,-0.17693172653315173
183,180.30902777777777,744.0763888888889,-0.17562307441441213
184,181.10545454545456,744.1454545454545,-0.17647761219676433
185,181.7665505226481,743.7142857142857,-0.195453256874318
186,182.7517006802721,743.8095238095239,-0.21073072373183982
187,183.4299674267101,743.3615635179153,-0.23776133796199486
188,184.29000000000002,743.3666666666667,-0.24053509553048005
189,184.76013513513513,743.043918918919,-0.26223483706478756
190,185.45214521452147,742.986798679868,-0.2840339866694386
191,186.40816326530614,743.7380952380952,-0.3238459810108543
192,187.23655913978496,743.7060931899641,-0.3407095763119132
193,188.07942238267148,744.2851985559566,-0.38025547750990063
194,188.752688172043,744.6057347670251,-0.42699291277776585
195,189.5320754716981,745.045283018868,-0.48398852173125606
196,190.20622568093387,745.5214007782101,-0.5532981971328513
197,190.91489361702128,746.195744680851,-0.6133353421351398
198,191.84513274336283,746.9867256637168,-0.757989587708915
199,192.45814977973566,747.5550660792951,-0.8733437730076693
200,193.5622119815668,748.8064516129032,-1.206225651303468
201,194.34375,749.6919642857143,1.1195862675300474
202,195.60165975103735,750.50622406639,0.81953894586066
203,196.10084033613447,751.7016806722689,0.6541796283475952
204,197.13278008298755,752.3817427385892,0.6002685592317546
205,198.03515625,752.9296875,0.519211947653538
206,199.03488372093022,753.5930232558139,0.42211451853372844
207,199.99245283018868,754.3849056603774,0.39673889956831004
208,200.89247311827955,754.7885304659499,0.3425920926112433
209,201.98920863309354,755.0107913669065,0.31104482501900477
210,202.65156794425087,756.0,0.2856597885775307
211,203.43434343434342,757.043771043771,0.27226158334355116
212,204.6914893617021,756.1595744680851,0.22472804949732456
213,205.72222222222223,756.3921568627451,0.2204305430984718
214,206.62876254180603,756.2709030100334,0.19269033446994116
215,207.68831168831167,756.512987012987,0.1810054929215273
216,208.44918032786887,756.9475409836066,0.1799075655417678
217,209.39322033898304,756.1593220338983,0.1591104096971767
218,210.4247491638796,756.2709030100334,0.1506342205127898
219,211.41463414634148,755.7979094076655,0.14078742891167378
220,212.24825174825173,755.3531468531469,0.12224612741057925
221,213.175,754.9892857142858,0.11799372301792214
222,214.04593639575972,755.0106007067138,0.10625620754416565
223,216.20999999999998,741.62,0.10716675166045768
224,215.95258620689657,753.5775862068965,0.09565178381799136
225,217.8804347826087,741.4347826086956,0.09600041568827847
226,218.74712643678163,741.8850574712644,0.1254931876186951
227,218.72670807453414,750.0683229813665,0.08491856346544946
228,220.11764705882354,742.1411764705882,0.11849640032828218
229,220.9120879120879,743.4945054945055,0.08271693684152298
230,221.67605633802816,743.112676056338,0.06834053473551915
231,222.42857142857144,743.0428571428572,0.09292521733098136
232,223.33870967741936,742.8870967741935,0.04441549916329738
233,223.75903614457832,745.566265060241,0.09833789281658119
234,224.35802469135803,745.8518518518518,0.07727335936682288
235,225.35211267605632,744.8028169014085,0.08066717899125707
236,226.60227272727275,743.2386363636364,0.049188295566091646
237,227.11627906976744,742.5232558139535,-0.011787094240114407
238,227.85,741.03,-0.04376549082548529
239,228.2622950819672,740.0737704918033,-0.06302718268268277
240,229.2919708029197,739.5109489051094,-0.08077124211064458
241,230.11111111111111,738.6319444444445,-0.06981729222606807
242,230.83216783216784,738.9020979020979,-0.09037494551140497
243,231.4939024390244,737.4085365853658,-0.06832608370192789
244,232.2910447761194,738.679104477612,-0.07289623980759917
245,232.69158878504675,735.4906542056075,-0.07128121416733114
246,233.23394495412845,734.6834862385322,-0.0906937214231954
247,234.0263157894737,734.6578947368421,-0.1042667648610918
248,234.60924369747897,733.0840336134454,-0.10804509888041106
249,235.40625,733.1875,-0.1083979466101117
250,236.24761904761905,734.9190476190477,-0.12195261756921909
251,236.51698113207547,731.9509433962264,-0.11081726700138185
252,237.16974169741698,732.1033210332104,-0.12672988365711227
253,237.94736842105263,731.301754385965,-0.12548282764271276
254,238.4842105263158,731.421052631579,-0.13806658505845468
255,239.30419580419579,731.0734265734266,-0.165621266102077
256,239.77302631578948,730.9177631578948,-0.17394495075283947
257,240.4055944055944,730.7062937062938,-0.1897756185714478
258,241.03508771929825,730.5894736842106,-0.20606436784609375
259,241.66666666666669,730.6840277777778,-0.2174695029915454
260,242.3658536585366,730.5818815331011,-0.23683889069652972
261,242.89473684210526,731.2736842105263,-0.2706549557813422
262,243.6058394160584,731.4744525547445,-0.29106656075519227
263,244.17518248175182,732.3905109489051,-0.30804345754197454
264,244.81918819188192,731.7158671586716,-0.3450693029725709
265,245.51020408163265,732.7102040816327,-0.398454787514774
266,246.00414937759336,732.9917012448133,-0.44911903968820677
267,246.7198275862069,733.5086206896551,-0.500434395324271
268,247.21904761904761,734.0142857142857,-0.546666993070798
269,247.96601941747574,734.8592233009708,-0.7277392108833457
270,248.61682242990656,735.9065420560747,-0.7064457049891677
271,249.5253456221198,736.8248847926268,1.2771490407979318
272,250.35211267605632,737.8638497652582,0.8813724122776623
273,250.91780821917808,739.0456621004566,0.579429993097322
274,251.74553571428572,739.7321428571429,0.5530137373414178
275,252.8943089430894,740.560975609756,0.46937957495666643
276,253.4139344262295,740.9754098360656,0.3890749449261896
277,254.03614457831327,741.9718875502008,0.35946110336191467
278,255.1529411764706,741.8941176470588,0.30059571669832325
279,255.8134328358209,742.6007462686567,0.27678023874671914
280,256.5519713261649,742.763440860215,0.234681523099308
281,257.54676258992805,742.8345323741007,0.24133335251675925
282,258.18367346938777,743.6054421768707,0.2150858498771981
283,259.31487889273353,743.2214532871973,0.18699573610345357
284,259.84385382059804,744.3953488372093,0.17466125435112168
285,260.740350877193,743.6736842105263,0.14978773745971402
286,261.60070671378094,743.5865724381625,0.13661650697544944
287,262.25783972125436,744.0975609756098,0.12754173134947686
288,263.0909090909091,744.2289562289562,0.12896030850027534
289,264.12056737588654,742.6382978723404,0.11332465457837618
290,264.6,743.2426229508196,0.08063486517230896
291,265.4175824175824,743.5677655677656,0.0940574364824468
292,266.3320158102767,741.9328063241106,0.08375820354170864
293,267.1146245059289,741.8142292490119,0.08112807869729229
294,268.3006134969325,736.4233128834355,0.05386036136666478
295,269.12418300653593,734.9411764705883,0.051251376171180085
296,270.0449438202247,729.2584269662922,0.09225460459338469
297,270.3006134969325,737.3128834355828,0.05038975167978045
298,271.3809523809524,729.6190476190476,0.03866048827700868
299,272.14102564102564,730.6410256410256,0.05684305157519218
300,272.5520833333333,732.1041666666666,0.03177545021614337
301,273.37179487179486,730.4102564102564,0.05235234710680955
302,274.22222222222223,730.4603174603175,0.06155282221902681
303,274.65432098765433,733.0123456790124,0.023702075712731856
304,275.30337078651684,734.1460674157304,0.052042828689499075
305,276.24,733.0666666666666,0.07984356952368295
306,276.27272727272725,731.8295454545455,0.00957670385569543
307,277.1685393258427,730.685393258427,0.0703216666369443
308,278.37931034482756,729.8275862068965,-0.08663715259097153
309,278.5,728.5,-0.033846511346984326
310,279.15966386554624,727.4621848739496,-0.0540336589513125
311,279.9677419354839,727.1129032258065,-0.08766450324039116
312,280.67857142857144,730.5238095238095,-0.06361458460679255
313,281.2330097087379,729.1747572815534,-0.0836145421872238
314,281.6497175141243,724.6045197740114,-0.08149361984174291
315,282.21656050955414,724.8726114649681,-0.10039502251430031
316,282.7826086956522,723.6413043478261,-0.10486406838948903
317,283.13656387665196,722.4845814977973,-0.08507930621059409
318,283.86425339366514,722.2352941176471,-0.0996271773201307
319,284.7283950617284,721.835390946502,-0.12217883852867523
320,284.96,720.288,-0.10676191788885135
321,285.55378486055776,719.7091633466135,-0.11315858013273622
322,286.00384615384615,719.5038461538461,-0.1265055454171717
323,286.54945054945057,718.9487179487179,-0.13108305831183142
324,287.1083032490975,719.2996389891697,-0.13826066673322468
325,287.4950495049505,718.7029702970297,-0.15954045310648138
326,288.22878228782287,718.8523985239852,-0.1656965467068222
327,288.6842105263158,718.561403508772,-0.16991991615625457
328,289.10130718954247,717.781045751634,-0.1818580357772302
329,289.5198675496689,717.9470198675497,-0.1963233151718328
330,290.4090909090909,718.4265734265734,-0.21748499416700665
331,290.72202166064983,717.956678700361,-0.22714817303796797
332,291.57414448669203,718.574144486692,-0.24478533418914278
333,292.0,719.2239382239383,-0.2779619880356918
334,292.69169960474306,719.4782608695652,-0.30013186706172884
335,293.2451361867704,720.0544747081713,-0.3360772649036336
336,294.00389105058366,720.2373540856031,-0.358719148478777
337,294.2510638297872,720.9702127659574,-0.42990411508193194
338,295.1380952380952,721.7952380952381,-0.4804702349429039
339,295.3557692307692,721.8798076923077,-0.5387632931632378
340,296.1256544502618,722.7120418848167,-0.6299253845087225
341,296.42857142857144,723.3809523809524,-0.7442357170355516
342,297.40314136125653,724.7486910994764,-0.6531570306882434
343,298.08,725.65,0.48099953941556844
344,298.90999999999997,726.34,0.4974915473300382
345,299.42583732057415,727.1483253588517,0.4896663211680701
346,300.22477064220186,727.9724770642201,0.41505494500978074
347,301.0925925925926,728.5,0.3576866301570307
348,301.55274261603375,729.1856540084389,0.3321842513634681
349,302.63675213675214,729.3675213675214,0.2851285111233189
350,303.0926640926641,730.2007722007722,0.2520278449215241
351,304.09411764705885,730.556862745098,0.214331069797344
352,304.508064516129,731.366935483871,0.19336339315461315
353,305.3225806451613,730.9964157706094,0.16491747451438865
354,306.0673758865248,731.936170212766,0.14797191731747666
355,306.86785714285713,732.0392857142857,0.1496384526750542
356,307.46153846153845,731.8391608391609,0.12483322204549599
357,308.2457337883959,731.8703071672355,0.11100389179499551
358,309.1076388888889,730.9548611111111,0.10304362407992133
359,309.6280701754386,731.9719298245614,0.09463008467334309
360,310.38214285714287,732.6857142857143,0.08382415039439077
361,311.06859205776175,731.7184115523465,0.0757047828866946
362,311.8695652173913,731.1485507246377,0.0651971053832793
363,312.69029850746267,731.0335820895523,0.05825749763026379
364,313.3219696969697,730.0113636363636,0.06777194483848883
365,314.0646551724138,729.6681034482758,0.04151084411375024
