FrameNo,Row,Column,Angle
54,8.297450424929178,954.3597733711048,0.16747936413109477
55,8.847784200385357,953.0404624277456,0.15822432128705013
56,9.859154929577464,951.5674044265594,0.14924285813033292
57,10.564681724845997,952.5462012320329,0.14367991889943002
58,11.040816326530612,953.7084548104956,0.14280442980959757
59,11.95475113122172,952.4886877828054,0.12119770809642384
60,12.902777777777779,952.0694444444445,0.10990609898909966
61,13.95187969924812,951.2556390977444,0.11023566832506122
62,15.133016627078385,950.4916864608076,0.09061663094883203
63,15.644557823129253,950.9608843537414,0.0890625288791834
64,16.51473136915078,950.4072790294628,0.08532629845052596
65,17.83123425692695,949.4861460957179,0.07204540063454096
66,18.086021505376344,948.9534050179211,0.04539120774570361
67,19.43445692883895,948.8052434456929,0.05420253170433937
68,20.209439528023598,948.6017699115044,0.030735765701819486
69,21.00284090909091,948.2585227272727,0.028826369144979103
70,21.897959183673468,947.530612244898,0.02466408036987416
71,22.536036036036037,947.6711711711712,0.01678882252883133
72,23.460280373831775,947.2429906542056,0.00867436886961528
73,24.145320197044335,946.5960591133005,-0.0340774497144936
74,25.220812182741117,946.2208121827412,-0.0509390918142039
75,25.781767955801104,946.2762430939226,-0.037152354816390364
76,26.927745664739884,945.9508670520231,-0.04252814662147454
77,27.658385093167702,944.9130434782609,-0.09414151665036466
78,28.363636363636363,944.9059561128527,-0.10048601982401363
79,29.155629139072847,944.2483443708609,-0.1151377336610363
80,30.087412587412587,944.2307692307693,-0.0982719789461687
81,30.946043165467625,943.7697841726618,-0.0963807546695985
82,31.598455598455597,943.3667953667954,-0.03945297228507886
83,32.62903225806452,941.8266129032259,-0.05825573644005664
84,33.272,941.4159999999999,0.03249719069223697
85,34.3231441048035,940.5589519650655,0.11849738195459858
86,34.888429752066116,939.900826446281,0.191605241938768
87,35.87550200803213,939.289156626506,0.29423189987385956
88,36.4,938.8510638297872,0.32544942369710966
89,37.54430379746835,937.9493670886076,0.31421937766178193
90,37.95752895752896,937.6332046332046,0.336987518373521
91,39.12408759124087,936.5620437956204,0.2831117881136525
92,39.675438596491226,936.921052631579,0.28574088102780365
93,40.62199312714777,934.9759450171821,0.27638147913192745
94,41.112,935.944,0.25402872380018077
95,42.00766283524904,935.0996168582376,0.233397681497046
96,42.877133105802045,934.4470989761093,0.20767086054521047
97,43.76164383561644,933.0438356164384,0.1918193010622529
98,44.12664907651715,932.4775725593668,0.18533325076747129
99,45.22330097087379,932.2686084142395,0.1662236297814586
100,45.74935400516796,932.2093023255813,0.15686336439677911
101,46.64182692307692,931.3149038461538,0.15355268681252687
102,47.38292682926829,930.2634146341463,0.13538400315409171
103,47.91144708423326,930.0885529157667,0.1374114073482987
104,48.48275862068966,929.7413793103449,0.13124972470998317
105,49.443693693693696,929.3018018018018,0.11065072389090906
106,50.055238095238096,928.5657142857143,0.09587418378314795
107,50.61372549019608,929.1647058823529,0.0898110236233964
108,51.35740740740741,927.5407407407407,0.08311718183187505
109,51.95246478873239,927.9806338028169,0.07653765315369661
110,52.66722408026756,926.1120401337793,0.05513296100790017
111,53.29026845637584,925.9144295302013,0.032482701179474084
112,54.1056,925.6176,0.03907241207167283
113,54.3234375,925.4421875,0.03460302760123831
114,55.149618320610685,923.9328244274809,0.025489938951806887
115,55.5609022556391,925.5804511278195,0.01021789474666764
116,56.58755426917511,924.7206946454414,0.0083982255055166
117,57.1257225433526,923.5419075144508,-0.01128270827200819
118,57.73907103825137,924.1188524590164,-0.008271959361566689
119,58.42877697841727,923.8546762589929,-0.02162947658813252
120,58.676623376623375,923.9103896103896,-0.02810547423148709
121,59.297476759628154,923.1646746347942,-0.03710818010097302
122,59.849673202614376,923.0614379084967,-0.0495629778673024
123,60.94304635761589,923.3907284768212,-0.05257109045998494
124,61.24362244897959,922.2589285714286,-0.07118053507500603
125,61.904347826086955,923.2583850931677,-0.07493357848125226
126,62.2319018404908,922.3926380368098,-0.08683078169159979
127,62.80793060718711,922.5130111524163,-0.1069186701851295
128,63.45331695331695,921.2493857493857,-0.11195989770606837
129,64.11771844660194,921.4987864077669,-0.10674436500337345
130,64.86134969325154,922.3938650306749,-0.12161977533647156
131,65.30376670716889,921.8019441069259,-0.13523800085050197
132,65.89041095890411,922.1369863013699,-0.1480902459648877
133,66.3180169286578,921.7400241837969,-0.15894509982528887
134,67.04342857142858,921.848,-0.18017530766372103
135,67.60558252427184,922.0339805825242,-0.19123243298403084
136,68.13106796116504,922.1589805825242,-0.1964060162420523
137,68.76608910891089,922.6002475247525,-0.20785927958139408
138,69.41498216409038,922.9429250891795,-0.22459183467851276
139,69.97775030902349,922.8071693448702,-0.24411598697433295
140,70.12620192307692,922.4543269230769,-0.2637116552139262
141,70.74721189591078,922.539033457249,-0.27032921411916255
142,71.61034047919294,923.2585119798234,-0.2844943420244692
143,72.1548946716233,923.6567534076828,-0.31259030816622113
144,72.69829683698296,923.2457420924575,-0.30941584254578647
145,73.27927927927928,924.3114543114543,-0.36395122126278956
146,73.91428571428571,924.4142857142857,-0.3684984255439297
147,74.71223958333333,925.0572916666666,-0.39060183180910446
148,74.97093791281374,925.2760898282695,-0.42214913447192637
149,75.51652892561984,925.5330578512396,-0.4407152574783697
150,76.0186170212766,925.7420212765958,-0.47769886970291153
151,76.79362880886427,926.3240997229917,-0.49352294038259986
152,77.16666666666667,926.3472222222222,-0.5165659300906057
153,77.93723252496433,927.4450784593438,-0.5746635253976201
154,78.47694524495677,927.7766570605187,-0.6174013193309031
155,78.72327964860908,928.112737920937,-0.6544434215594371
156,79.73170731707317,928.9024390243902,-0.6974811998483887
157,79.96852646638054,929.6766809728183,-0.7415157332992336
158,80.490990990991,929.6156156156156,-0.8148357643419415
159,81.04552352048559,930.628224582701,-0.8914131744741088
160,81.58039816232773,931.1026033690658,-0.9671602953698737
161,82.4061135371179,932.197962154294,-1.018721047169591
162,83.1692546583851,932.5481366459627,-1.125254767028075
163,84.01529051987768,933.1483180428135,-1.2682086313657275
164,84.47981366459628,933.7391304347826,-1.349549317890277
165,84.99688473520249,934.5856697819314,-1.531799165496586
166,85.65996908809892,935.080370942813,1.519951143225761
167,86.76287051482059,936.0514820592824,1.3869642205093868
168,86.86342943854325,936.9150227617603,1.2527524068871116
169,87.93962848297214,937.5030959752322,1.1666925312429903
170,88.59907120743034,938.4380804953561,1.0799371874157317
171,89.6431784107946,938.7046476761619,1.0248570946711977
172,90.58170914542728,939.544227886057,0.9359363299210947
173,91.31981981981981,940.0675675675676,0.900881322946117
174,91.5408618127786,940.9316493313521,0.8395683846832177
175,92.67105263157895,941.3786549707602,0.793729375663799
176,93.60499265785609,941.8267254038179,0.755942955911924
177,94.56652360515021,942.3433476394849,0.7172543161812469
178,95.09269662921348,943.0449438202247,0.6860539956200215
179,96.03025936599424,943.4207492795389,0.6402320762360955
180,96.91782729805014,943.849582172702,0.6235524774079312
181,97.9207650273224,944.2090163934427,0.5888116881216222
182,98.21997300944669,945.1551956815115,0.5740359526202226
183,99.22493224932249,945.5135501355014,0.5435643757190484
184,100.52513227513228,945.3015873015873,0.5231085012543752
185,101.3166885676741,945.6057818659658,0.49093684109825053
186,102.13377483443709,946.1986754966888,0.461017253857429
187,102.9922077922078,946.525974025974,0.4575319302018169
188,103.71596858638743,946.9188481675393,0.428664972538411
189,104.72387096774193,947.1148387096774,0.4260571467303707
190,105.3473132372215,947.5806028833551,0.40914492845960504
191,106.51913265306122,947.3839285714286,0.4016122848010747
192,107.49744245524296,947.227621483376,0.37354302467850314
193,108.31875,947.9675,0.3656130303313428
194,109.26199740596628,947.7224383916991,0.34819112747072367
195,110.05513784461152,947.7832080200501,0.3446077004576939
196,110.95448798988622,947.6409608091024,0.31560453210530165
197,111.62202753441802,948.3754693366708,0.3136641265453854
198,112.3574097135741,948.7907845579078,0.3036563666306892
199,113.63288009888751,947.7812113720643,0.2888557682103187
200,114.48593350383632,948.3030690537084,0.2766127353125089
201,115.42260442260442,948.1265356265357,0.2785079369921119
202,116.41069100391134,948.335071707953,0.2643665319959027
203,117.05472636815921,948.6467661691543,0.2555643120132613
204,117.9807938540333,947.7541613316262,0.24589486543707315
205,118.86069651741293,947.4004975124378,0.22662507999494924
206,120.12350597609561,946.9415670650731,0.22591555100438288
207,120.80636942675159,946.8738853503185,0.21216242109265232
208,121.6178756476684,946.9028497409327,0.20792471047285987
209,122.35416666666667,947.0247395833334,0.199132723874755
210,124.03298969072165,944.4969072164948,0.18199129434346084
211,125.05052631578947,943.7221052631579,0.17576895648741825
212,125.63347457627118,944.3898305084746,0.16595006882632948
213,126.5948827292111,943.7100213219617,0.1612885155333284
214,127.43589743589743,943.3205128205128,0.15755703989758443
215,128.2967741935484,943.6817204301076,0.14849320452038905
216,129.13140311804008,942.7037861915368,0.14211917349541908
217,129.86547085201795,943.4977578475336,0.13561455203586933
218,130.7233560090703,942.8798185941043,0.13043733767314147
219,131.2144,944.2464,0.1180497321543953
220,132.37954545454545,942.8727272727273,0.11292954641012144
221,132.89337641357028,943.919224555735,0.10249492498773334
222,134.18204488778053,941.3466334164589,0.09944528154192889
223,134.499176276771,942.5172981878089,0.10884718238910095
224,135.53526220614827,941.9801084990959,0.0959346781501099
225,136.4315589353612,941.5437262357415,0.08729916145175505
226,137.29775280898878,940.6657303370787,0.0669647698354542
227,138.15605749486653,940.4948665297741,0.08076180107859951
228,138.65376344086022,941.3333333333334,0.05672632306675638
229,139.78305785123968,939.8946280991736,0.05333665848133038
230,140.60731707317075,939.7951219512195,0.043798271702652
231,141.43269230769232,939.125,0.03666117513731678
232,141.89382716049383,938.8395061728395,0.024702981967700165
233,142.7089947089947,939.0925925925926,0.02010318659384649
234,143.68421052631578,937.4653739612188,0.009648250925479876
235,144.40793201133144,938.0821529745042,0.015508384640526299
236,145.36401673640168,936.6987447698745,-0.009869414484357294
237,145.5307917888563,937.5366568914956,-0.005466252804700196
238,146.80633802816902,936.7007042253521,-0.014914731329317529
239,147.4790874524715,936.3346007604563,-0.038643217336569516
240,148.41015625,935.5546875,-0.020808481445741617
241,149.24279835390945,935.3991769547325,-0.04877721761045668
242,150.6311475409836,935.4795081967213,-0.06323682664027948
243,150.9497716894977,934.3835616438356,0.005569905527205561
244,151.71090047393363,934.3270142180095,-0.03498450744428429
245,152.3131313131313,933.3585858585859,0.04647452522521426
246,153.05759162303664,932.6701570680628,0.021976566832795343
247,153.8388625592417,931.2654028436019,0.09664824314259092
248,154.40723981900453,931.5158371040724,0.1114042616004336
249,155.4102564102564,929.8102564102564,0.24038546001114627
250,156.42986425339365,929.0090497737557,0.23293929747678752
251,157.03864734299515,928.463768115942,0.19101880164676757
252,157.69747899159665,928.0504201680673,0.20008868470061067
253,158.44144144144144,927.7567567567568,0.19701827292432783
254,159.1,927.437037037037,0.17770799506081547
255,159.80082987551867,927.2406639004149,0.16261256178265066
256,160.56704980842912,926.2222222222222,0.16261948994270883
257,161.5611510791367,925.2014388489208,0.14086155134585676
258,162.06962025316454,925.8512658227849,0.12237388766658819
259,163.18333333333334,923.67,0.09160668219445263
260,163.65635738831617,923.7285223367697,0.10113590654303725
261,164.2801047120419,922.8586387434555,0.08827057923837438
262,165.03592814371257,923.3023952095808,0.08356222205446791
263,165.725,922.4333333333334,0.061689355500447525
264,166.43287671232878,922.5780821917808,0.06254871749477686
265,167.0664893617021,922.031914893617,0.06853030221987169
266,167.92140921409214,921.4959349593496,0.046614779090913265
267,168.53125,920.4947916666666,0.045185418283907396
268,169.3131313131313,920.2060606060606,0.04587225876011458
269,169.68539325842698,919.6,0.03433981718527304
270,170.3802559414991,920.1352833638025,0.02606855062318051
271,171.2234273318872,920.1388286334056,0.025930430698589156
272,171.63090128755363,918.950643776824,0.01641629217854453
273,172.45087719298246,918.5859649122807,0.009986159647149388
274,173.1158536585366,917.8536585365854,-0.012887721141902956
275,173.71153846153845,917.3826923076923,-0.00959130254494326
276,174.54563492063494,917.0853174603175,-0.018805807533151205
277,175.03963963963963,917.3063063063063,-0.02542475668527018
278,175.5966850828729,916.6979742173112,-0.030057722999576136
279,176.23469387755102,915.6360544217687,-0.04291820403821503
280,176.78971962616822,915.665109034268,-0.05122512863489922
281,177.54591836734693,915.748299319728,-0.05451403906444908
282,178.02886002886004,915.3607503607503,-0.06287429150428114
283,178.89320388349515,915.0922330097087,-0.06930405634355266
284,179.31014492753621,915.4956521739131,-0.0719777166140259
285,179.7772925764192,914.8078602620087,-0.0769505699729252
286,180.6271186440678,914.7358757062146,-0.08950326496452811
287,181.0677966101695,914.1232665639445,-0.09799698101257742
288,181.73846153846154,914.1118881118881,-0.1064522722428103
289,182.8861788617886,917.1219512195122,-0.11498112197517874
290,182.64520547945204,913.9356164383562,-0.11530652973972631
291,183.31515957446808,913.8776595744681,-0.12435467847518748
292,184.00522875816995,913.4679738562091,-0.1364519431799994
293,184.91751085383504,914.1201157742403,-0.15457815650676218
294,185.5557620817844,914.0241635687732,-0.15982637617566087
295,185.86189889025894,914.810110974106,-0.1637983285811706
296,186.93986928104573,914.3490196078432,-0.18932087907586212
297,187.18543046357615,914.1417218543046,-0.19372543285567526
298,187.51841746248294,913.0504774897681,-0.2051800151156139
299,188.31088082901556,913.7759067357513,-0.219584318631858
300,188.70827858081472,913.7871222076216,-0.22607770172312516
301,189.20314547837484,913.3420707732635,-0.24913645354577404
302,190.0874673629243,914.7506527415144,-0.26607800041524526
303,190.56,914.5426666666667,-0.27268671388945864
304,191.1054054054054,914.6472972972973,-0.2746551921899049
305,191.904,915.5173333333333,-0.29726678922718697
306,192.39689265536722,914.7556497175141,-0.31057994700451363
307,192.87411598302685,915.2135785007072,-0.3344105862381512
308,193.7094017094017,915.5997150997151,-0.3529480569841186
309,194.064880112835,915.392101551481,-0.3784856746541501
310,195.02553191489363,916.1390070921985,-0.4007145193070121
311,195.7478134110787,916.704081632653,-0.4162221759786971
312,195.9941348973607,917.092375366569,-0.42787613623571763
313,196.59766763848398,917.1282798833819,-0.47883657386332223
314,196.94198473282444,916.9312977099237,-0.4867102580701403
315,197.65434083601286,917.5353697749197,-0.5146504380003402
316,198.51033386327504,918.39586645469,-0.5530284437998344
317,198.96502384737678,918.5723370429253,-0.5822355541154679
318,199.19099378881987,919.1832298136646,-0.6297247110410815
319,200.2987012987013,919.9366883116883,-0.6934381063464391
320,200.98861788617887,920.3365853658537,-0.725983325631132
321,201.04440789473682,920.5625,-0.7553979670396982
322,202.15172413793104,921.0051724137932,-0.8452504303946727
323,203.3296,922.5536,-0.9337286418589161
324,203.11035653650254,922.383701188455,-0.9736503403008288
325,203.89100346020763,923.1868512110726,-1.1155229692526205
326,204.39078498293514,923.8327645051195,-1.1992275466926408
327,205.34957983193277,924.3966386554622,-1.2997197824783273
328,205.43003412969284,925.3976109215017,1.5706945757540838
329,206.56397306397307,925.9882154882155,1.477403434587973
330,207.578231292517,926.2619047619048,1.349297237257317
331,208.23706176961605,927.2303839732888,1.2468391294183723
332,208.80677966101695,927.8203389830509,1.0576313885479032
333,210.0548172757475,928.5199335548173,0.965420990675158
334,210.34271523178808,929.1754966887418,0.9321804965708825
335,211.1658374792703,930.0033167495855,0.8442794231336167
336,211.9087947882736,930.3094462540716,0.7809273469135771
337,212.62243285939968,930.9241706161138,0.7404404713392465
338,213.54616588419407,931.9123630672926,0.696642859875203
339,214.348367029549,932.2239502332815,0.6751738446007793
340,215.25076923076924,932.7907692307692,0.6258078108814231
341,216.02472952086555,933.1870170015457,0.6034248711556665
342,216.95054095826893,933.5780525502319,0.5624660881032051
343,217.32738095238096,934.8645833333334,0.5362846223171128
344,218.42705167173253,934.7887537993921,0.5102422326417384
345,218.86994219653178,935.3511560693642,0.49589537614146606
346,220.2258064516129,935.3167155425219,0.4629926417454373
347,221.0465793304221,935.6186317321689,0.4497867836373233
348,221.94524495677234,935.8991354466859,0.4379550131130516
349,222.88920863309352,936.1122302158274,0.4122791891982815
350,223.61764705882354,936.6932773109244,0.39104571760444723
351,224.24581005586592,937.1843575418994,0.37790629536560305
352,225.30434782608694,937.0159420289855,0.3681540187054673
353,225.92127071823205,937.9378453038674,0.34750485057728414
354,226.93504736129904,937.6211096075779,0.34129149849284407
355,227.66666666666669,937.7,0.3255777126860472
356,228.7339971550498,938.0896159317213,0.32080348487181004
357,229.77327935222672,937.634278002699,0.29916976453329824
358,230.35914552736983,938.592790387183,0.29493830174103197
359,231.20336605890603,938.0981767180925,0.2821959986866971
360,232.48221906116643,937.9459459459459,0.2667596903568697
361,233.15533980582524,938.0027739251041,0.2620483058346628
362,234.02394366197183,938.2450704225353,0.2547363629587209
363,234.6856745479833,938.4826147426982,0.2421919071104387
364,235.90568654646324,937.75866851595,0.22599306889617465
365,236.31643835616438,937.7698630136986,0.22423352053339615
366,237.25,938.2485955056179,0.21712322627162742
367,238.14545454545453,937.9776223776224,0.2141093570638155
368,239.02970297029702,938.024045261669,0.2097911419107479
369,239.5986111111111,938.6291666666666,0.19073586483174748
370,240.6775147928994,937.9363905325444,0.19668047191375773
371,241.6370481927711,937.718373493976,0.18022388681210696
372,242.1644245142003,937.5919282511211,0.1842725956837723
373,243.19213313161876,937.1906202723146,0.17931696518343843
374,244.43701399688956,936.7200622083981,0.15134395098065492
375,245.3488721804511,934.3533834586466,0.1573658400607761
376,246.46793349168647,932.8503562945368,0.15086849908574432
377,247.41176470588235,932.0661764705883,0.14705324229627206
378,248.1043771043771,933.4646464646464,0.15494401654771517
379,248.51788756388416,935.1993185689948,0.1437662422921938
380,249.1801346801347,934.4680134680135,0.14712129010696695
381,250.19642857142856,934.2607142857142,0.13628361846184603
382,251.05194805194805,933.7717996289425,0.13229574924221055
383,252.09333333333333,930.9173333333333,0.12012567866560736
384,252.4238921001927,934.402697495183,0.10917420150124037
385,253.58628318584073,931.8694690265487,0.10521804884814158
386,254.28719008264463,931.5785123966942,0.09468717063235656
387,255.09188034188034,932.275641025641,0.10873477273260315
388,255.86736842105262,931.781052631579,0.10048299002791646
389,256.87113402061857,929.8273195876288,0.09277033877407993
