FrameNo,Row,Column,Angle
31,14.682432432432432,724.2905405405405,0.6787395871104561
32,15.784905660377358,723.4188679245283,0.7049197523822626
33,17.976,722.508,0.7059014206246262
34,19.717741935483872,722.0201612903226,0.7188347601241207
35,21.472081218274113,721.7715736040609,0.7127872434716029
36,23.35609756097561,721.3756097560976,0.7394728077866158
37,25.406593406593405,720.6703296703297,0.7420282630708253
38,27.414201183431953,719.9349112426036,0.7411711660000171
39,29.8,718.8129032258064,0.7533592240566556
40,30.71511627906977,719.1104651162791,0.7774658793837926
41,34.536,717.024,0.7784592428031416
42,36.32142857142857,716.5535714285714,0.788662979896645
43,39.362637362637365,715.0439560439561,0.7988538807571255
44,42.40277777777778,713.4722222222222,0.8335566825172367
45,43.63095238095238,713.6666666666666,0.8480869890748138
46,41.3304347826087,716.9826086956522,0.8663497236820072
47,42.71212121212121,716.8409090909091,0.8991871193079489
48,44.556451612903224,716.4032258064516,0.9173947990724476
49,45.936619718309856,716.0492957746479,0.9212502944652506
50,47.89349112426036,715.5266272189349,0.9467526209335656
51,49.41104294478528,715.1349693251534,0.9832611499405324
52,51.32163742690059,714.5438596491229,1.0013543209129605
53,52.255434782608695,714.6467391304348,1.0211324665962316
54,54.16574585635359,714.0552486187845,1.0582009553349891
55,55.775,713.48,1.0810340719457927
56,57.56459330143541,712.8803827751196,1.1138604217196248
57,59.2073732718894,712.294930875576,1.1676132839241482
58,61.116279069767444,711.9441860465116,1.2155590816848734
59,62.626126126126124,711.3108108108108,1.2362563381345857
60,64.33620689655173,710.6724137931035,1.3111654101053865
61,65.50207468879668,710.1078838174274,1.295636442883879
62,67.81404958677686,709.5702479338843,1.352384256020451
63,69.828,708.8679999999999,1.420703519374839
64,71.35907335907336,708.3127413127413,1.4631525403658603
65,72.97090909090909,707.8618181818182,1.4917734930736186
66,74.71538461538462,706.8384615384615,1.553151885097157
67,76.47463768115942,706.2934782608695,-1.5311794339529459
68,78.09782608695652,705.5217391304348,-1.4520703866554692
69,79.91549295774648,705.0035211267606,-1.4026005977012372
70,81.72053872053873,704.3872053872054,-1.280261680050737
71,83.21639344262294,703.4786885245902,-1.2418891289082552
72,85.36,702.9266666666666,-1.1567723769487872
73,86.61363636363636,702.237012987013,-1.1350051718875718
74,88.86666666666666,701.6634920634921,-1.0842375285498858
75,90.26058631921823,700.8534201954398,-1.0249449402386448
76,92.29906542056075,700.3426791277259,-1.0355028324123141
77,93.77742946708464,699.4075235109718,-0.938265684489465
78,95.67867867867868,699.0,-0.9000146256369858
79,97.35714285714286,698.1755952380952,-0.8437550864801767
80,99.23353293413173,697.5209580838323,-0.8338901123057657
81,100.625,697.0833333333334,-0.8194121931319587
82,102.51641791044776,696.4686567164179,-0.8012595639536326
83,103.94134897360703,695.6392961876833,-0.760738750702422
84,106.05637982195846,695.3887240356083,-0.7541920912977477
85,107.39762611275964,694.5103857566766,-0.7287121121988991
86,109.49117647058823,693.9264705882352,-0.7136579151713996
87,111.39285714285714,693.8928571428571,-0.6968001232709847
88,113.21637426900585,693.5029239766081,-0.6941377973905788
89,114.68660968660969,692.7094017094017,-0.6790567901383122
90,116.625,692.1818181818182,-0.6458264621955603
91,117.9766081871345,691.5672514619883,-0.6341121189320933
92,119.65281899109792,691.1691394658753,-0.6237413890527402
93,121.33233532934132,690.6467065868263,-0.6210439196669596
94,122.91566265060241,689.9036144578313,-0.6259297455615167
95,124.86786786786787,689.9069069069069,-0.6016753019356353
96,126.96783625730994,689.7865497076024,-0.5950344896378859
97,128.4878048780488,689.3201219512196,-0.615763551526123
98,130.30434782608694,689.1024844720497,-0.6093326740321648
99,131.97734627831716,688.7249190938511,-0.5936520927599381
100,133.5359712230216,688.0827338129496,-0.5945791978372174
101,135.22801302931595,687.9706840390879,-0.5925506068509258
102,137.09803921568627,687.7529411764706,-0.5864322599942977
103,139.02057613168725,687.7942386831276,-0.5900494164490983
104,140.53688524590166,687.2459016393443,-0.5903658575914968
105,141.9957264957265,686.6880341880342,-0.5943397661260521
106,143.7911111111111,686.6355555555556,-0.5973315681580981
107,145.847533632287,686.9237668161435,-0.602427082433741
108,147.78095238095239,686.9666666666667,-0.5928738216007069
109,149.49586776859505,687.0,-0.5874688752915765
110,151.84324324324325,687.5027027027027,-0.5965157868585393
111,153.01826484018267,686.7990867579908,-0.5990067267670447
112,157.8728813559322,690.9322033898305,-0.6033023389597088
113,159.32258064516128,690.3951612903226,-0.6061827567837107
114,164.04166666666669,694.6111111111111,-0.6060936893745538
115,161.77852348993287,689.0536912751678,-0.6260873566298079
116,163.34265734265733,688.5944055944055,-0.6435336426877853
117,165.4016393442623,689.1311475409836,-0.6566819934632366
118,164.18343195266272,685.4970414201183,-0.6572290319890075
119,165.34285714285716,684.7314285714285,-0.6717419225313384
120,166.95348837209303,684.6790697674419,-0.6717549256160962
121,169.0,684.8954248366013,-0.6886369518056095
122,169.82407407407408,683.5092592592592,-0.7115301571111023
123,171.1951219512195,683.4439024390244,-0.7166784281997843
124,172.38,682.932,-0.7432221773484862
125,174.453125,683.3515625,-0.7594885773582838
126,175.55555555555554,682.8531746031746,-0.7833054718497532
127,177.41379310344826,682.9386973180077,-0.7980700977637548
128,178.921568627451,682.913725490196,-0.8139871083114988
129,180.5551181102362,682.9566929133858,-0.8434875714492587
130,181.32835820895522,682.1641791044776,-0.8586373891939798
131,183.32706766917295,683.0,-0.891886277351862
132,185.14869888475835,682.9405204460967,-0.9144302959856877
133,186.35632183908046,682.8352490421456,-0.9587219941100132
134,188.1185770750988,682.9446640316205,-1.006669596692712
135,189.4469696969697,683.0340909090909,-1.0440262323440839
136,191.1679104477612,683.3022388059701,-1.0553379735497428
137,192.71376811594203,683.4130434782609,-1.141082935203271
138,194.07984790874525,683.5969581749049,-1.1775750838813779
139,196.4065934065934,683.945054945055,-1.2237891959397424
140,197.8160535117057,684.448160535117,-1.2707429601611206
141,199.49454545454546,684.48,-1.3397191909942994
142,200.9641577060932,684.9032258064516,-1.4105719466266375
143,203.01045296167246,685.0592334494773,-1.49626312214415
144,204.29109589041096,685.3835616438356,-1.5426276399155856
145,206.16723549488054,685.8225255972696,1.5221291310521292
146,207.5436241610738,686.0134228187919,1.4495608382975558
147,209.03082191780823,686.6883561643835,1.331132853235525
148,211.17491749174917,687.016501650165,1.2749329222016028
149,212.58823529411765,687.4248366013072,1.1867157394308956
150,214.68770764119603,687.7408637873755,1.0935935308705458
151,216.42638036809817,688.1073619631902,1.002503230099843
152,218.34138972809666,687.9123867069486,0.9360710667086974
153,219.71732522796353,688.9331306990881,0.877663388707038
154,221.47305389221557,688.7155688622754,0.8172799547921827
155,223.17888563049854,689.1671554252199,0.7653347661615999
156,225.16666666666669,689.3515151515152,0.7286566799566112
157,226.75294117647059,689.6529411764706,0.6792317824649351
158,228.32193732193733,689.9002849002849,0.6256241115688543
159,230.21409214092142,689.9891598915989,0.5865272215600128
160,231.925,690.4555555555555,0.569240525855536
161,233.60955056179773,690.4213483146068,0.5446651268404844
162,235.56830601092895,690.188524590164,0.5143854581688079
163,237.30225988700565,690.7259887005649,0.4909523766796682
164,238.8876712328767,690.5890410958904,0.44373138716394184
165,240.6518105849582,690.9303621169917,0.43253909481888153
166,242.16120218579235,691.2677595628415,0.4120934369862504
167,244.00799999999998,691.3466666666667,0.40118018049726395
168,246.01939058171746,690.9085872576177,0.3706957474203781
169,247.6814404432133,691.0498614958449,0.373355240723233
170,249.30532212885154,691.1764705882352,0.34183192095121157
171,251.05649717514126,690.7570621468926,0.33400135338935455
172,252.75842696629212,691.0898876404494,0.3101036012175791
173,254.4743935309973,690.2614555256065,0.3142736556335469
174,256.1611111111111,690.3416666666667,0.30262702369196254
175,257.8721590909091,689.8323863636364,0.2897544471158267
176,259.5623268698061,690.0083102493074,0.26461660271891346
177,261.00291545189503,690.1807580174927,0.2587437554624465
178,262.6798679867987,689.983498349835,0.2629278382991828
179,264.5548961424332,689.353115727003,0.24817142508198184
180,266.26027397260276,688.9760273972603,0.23683015165021154
181,267.4761904761905,688.7113095238095,0.21346540700096453
182,269.3176100628931,688.5220125786163,0.2333550357083643
183,270.93333333333334,688.7740740740741,0.22664791760572972
184,272.6867469879518,688.2208835341365,0.22024534910074572
185,274.2230215827338,687.7410071942446,0.22596316889879434
186,276.05982905982904,686.6410256410256,0.20213558925459288
187,277.6376811594203,686.463768115942,0.22514566017820217
188,279.28846153846155,686.3317307692307,0.20959835013789804
189,280.9949494949495,685.1969696969697,0.2020025761695752
190,282.52906976744185,684.8255813953489,0.20530899681136006
191,284.02906976744185,684.3953488372093,0.20820090688479623
192,288.03508771929825,672.9824561403509,0.1902136693529719
193,287.8360655737705,681.2868852459017,0.2105202658491128
194,289.40517241379314,680.3793103448276,0.1998792791868507
195,292.5,672.9423076923077,0.20441970513238059
196,293.96610169491527,673.5254237288136,0.2428306616370163
197,294.9090909090909,676.2207792207793,0.21514360211392555
198,296.5375,675.7125,0.2217137034248142
199,298.84444444444443,672.6222222222223,0.20694472935731628
200,298.33636363636367,679.8272727272728,0.28708630289859444
201,301.3137254901961,674.7254901960785,0.31552782748702535
202,301.10434782608695,679.9826086956522,0.33092937832590325
203,302.4434782608696,679.9217391304348,0.3451087221385737
204,303.9065420560748,679.3364485981308,0.3826257979236153
205,305.11504424778764,679.1592920353983,0.4171918241293913
206,306.42241379310343,678.5603448275862,0.44978494078979436
207,307.95901639344265,677.983606557377,0.5042318121755857
208,308.94262295081967,677.9180327868853,0.533828232093525
209,311.0,677.2709677419355,0.5922283531124025
210,312.25,676.0086206896551,0.6333808151258449
211,313.56692913385825,675.1811023622047,0.6698185635217189
212,314.951724137931,674.4068965517241,0.6310322137197725
213,316.5652173913044,673.4202898550725,0.7066132258204968
214,317.9808917197452,673.063694267516,-1.541265306045157
215,319.43030303030304,671.9151515151515,-0.6450781603568569
216,320.8,670.9806451612903,-0.74498172903763
217,321.7068965517241,669.7988505747127,-0.7370379248530313
218,323.4858757062147,669.1412429378531,-0.6545496117020145
219,324.825641025641,668.6358974358974,-0.7128316923930967
220,326.4126213592233,667.9417475728155,-0.6476140067410151
221,328.1116504854369,667.5339805825242,-0.5934743895014869
222,329.5098039215686,666.7745098039215,-0.5488568183571254
223,331.0550458715596,665.7201834862385,-0.5036088383407415
224,332.2731707317073,665.170731707317,-0.4790207324918392
225,333.83700440528634,664.704845814978,-0.5034900214376935
226,335.0468085106383,663.9702127659574,-0.4701086618295915
227,336.6784140969163,663.8986784140969,-0.45615575274576226
228,337.8488888888889,662.9777777777778,-0.4282522651136222
229,339.64315352697093,662.8091286307053,-0.44861308678485745
230,340.86255924170615,661.9052132701422,-0.4269612050242458
231,342.3188405797101,661.4299516908212,-0.4110461692023936
232,343.95813953488374,661.3488372093024,-0.4099936951302403
233,345.42918454935625,661.5407725321888,-0.40957420388610677
234,346.66990291262135,660.5776699029126,-0.4011188582433504
235,348.20588235294116,660.4509803921569,-0.3945493460662986
236,349.6942148760331,660.1735537190083,-0.4216846182914542
237,351.02985074626866,660.0,-0.3915706494553304
238,352.38709677419354,659.3978494623656,-0.38966138710126774
239,353.7864583333333,659.3229166666666,-0.39533822227149445
240,355.7578947368421,659.9578947368421,-0.38613398034835295
241,357.0913978494624,659.5537634408602,-0.4009339214748085
242,358.84530386740335,660.2154696132596,-0.3931391172069245
243,360.1777777777778,659.75,-0.38833624779499726
244,361.8909090909091,660.5030303030303,-0.3997611693544417
245,363.23602484472053,660.1925465838509,-0.39645887868961865
246,366.2457627118644,663.6271186440678,-0.40038454038270466
247,367.4409448818898,663.1889763779527,-0.40234170591077145
248,368.82835820895525,663.1940298507462,-0.4070725385707088
249,370.2074074074074,662.7407407407408,-0.42742674779530837
250,370.34391534391534,659.7407407407408,-0.4380850282096778
251,371.1372549019608,658.718954248366,-0.4361508713094064
252,374.4732142857143,662.6875,-0.4473267202399357
253,373.86,658.48,-0.45199856321368614
254,375.1165644171779,658.0184049079754,-0.47308947823844955
255,376.4055944055944,658.0769230769231,-0.4769693927823108
256,377.4308510638298,657.313829787234,-0.4890987293016505
257,378.8395061728395,657.3827160493827,-0.5099470862548025
258,380.2135416666667,657.4583333333334,-0.5180869294813382
259,381.9380530973451,658.4601769911504,-0.5421443074044179
260,383.01951219512193,657.8,-0.554307487441263
261,384.33953488372094,657.8744186046512,-0.5828228261181855
262,385.80676328502415,657.9613526570048,-0.6108871112081059
263,386.495,657.525,-0.6775128552265823
264,388.2124352331606,657.8290155440415,-0.6871338734949187
265,389.5507246376811,658.3236714975845,-0.721024500804234
266,390.9414893617021,658.4787234042553,-0.763443485266409
267,392.0,658.6071428571429,-0.8338648327426034
268,393.5245901639344,659.0,-0.8325011935085246
269,394.98936170212767,659.5585106382979,-0.9516611681696996
270,396.1875,660.1614583333334,-1.0571129173315676
271,398.0994764397906,660.6806282722513,-1.105595170566581
272,399.1302083333333,661.3697916666666,-1.2744747194390869
273,401.0459183673469,661.8622448979592,-1.542949967124775
274,402.234693877551,662.5102040816327,1.2976042454737338
275,404.0536585365854,662.9365853658537,1.0052191410721432
276,405.4807692307692,663.5721153846154,0.8294162425314652
277,406.6355140186916,664.0654205607477,0.7845074122081894
278,408.4,664.7860465116279,0.5821696786981141
279,409.9688888888889,665.2666666666667,0.5455958355762996
280,411.34322033898303,665.5720338983051,0.5253260935224374
281,412.5982532751092,666.5764192139738,0.45088966629363686
282,414.1538461538462,666.6068376068376,0.4222658186927751
283,415.7629310344828,666.6163793103449,0.3804098343979988
284,417.5311203319502,666.7925311203319,0.3444764668717117
285,418.8412698412698,667.5992063492064,0.32814178342104827
286,420.156378600823,668.1851851851852,0.2758753397156741
287,421.6205533596838,667.9881422924901,0.2905790678141669
288,423.1137254901961,667.9098039215686,0.2616413767514116
289,424.54980079681275,668.4342629482072,0.2532168021304746
290,425.9506726457399,668.1165919282512,0.22908669593370612
291,427.48818897637796,668.0905511811023,0.2055599923372037
292,428.7283950617284,668.6625514403293,0.21734891764328443
293,430.08984375,668.79296875,0.19175830500859653
294,431.4859437751004,668.3975903614457,0.19596741529630932
295,432.97222222222223,668.0740740740741,0.17297093592066978
296,434.2254098360656,668.3196721311475,0.17186756809216375
297,435.65841584158414,668.2178217821782,0.16613473721411484
298,438.67045454545456,658.3409090909091,0.1221453152307684
299,438.56476683937825,667.6321243523316,0.15830807823960594
300,439.8243902439024,667.7414634146342,0.15715575224359257
301,441.44654088050316,666.0754716981132,0.13869894453765436
302,442.84023668639054,665.3905325443787,0.13481725160853195
303,444.1637426900585,665.0584795321638,0.1389404482051516
304,445.5126582278481,665.0189873417721,0.14887168105121015
305,447.3658536585366,661.5934959349594,0.13630047172984294
306,449.7678571428571,652.7678571428571,0.14463077265456106
307,450.16037735849056,659.7830188679245,0.14394269980205776
308,452.57142857142856,653.1269841269841,0.14370344900436446
309,452.969696969697,658.4444444444445,0.15473861022465987
310,454.50632911392404,656.6582278481012,0.16756031503122043
311,454.6585365853658,662.9430894308944,0.18281759979112236
312,456.8690476190476,657.6785714285714,0.19504965685891715
313,456.94405594405595,663.7552447552448,0.19882364724675444
314,458.0820895522388,663.7686567164179,0.2113653607907725
315,459.4,662.6714285714286,0.2169876714600009
316,460.43382352941177,663.4632352941177,0.2549265428614692
317,461.90361445783134,662.1265060240964,0.26926268579651047
318,463.02919708029196,662.1970802919708,0.28963593372627944
319,464.0969696969697,662.1878787878788,0.2793311127122772
320,465.51612903225805,661.3096774193548,0.3576560938816494
321,466.4029850746269,661.2089552238806,0.36064533630057893
322,467.52258064516127,660.8,0.4116367222831268
323,468.64084507042253,660.0492957746479,0.4543714526191226
324,469.74666666666667,659.5866666666667,0.4852696132211509
325,470.83116883116884,658.9805194805194,0.5893129246694678
326,472.24503311258275,657.9602649006622,0.5778769684273689
327,473.4193548387097,657.1354838709677,0.7522905424493089
328,474.3975155279503,656.4037267080745,0.6585280871660112
329,475.5379746835443,655.632911392405,0.8349014320571554
330,477.04458598726114,654.656050955414,-1.306021769933894
331,478.0,653.7484662576687,-1.1105483598757386
332,479.3391812865497,652.9356725146199,-0.7821459234441087
333,480.4,651.9055555555556,-0.840108631191139
334,482.00540540540544,651.4918918918919,-0.7013996789876227
335,482.8956043956044,650.3901098901099,-0.6312759141288381
336,484.3351063829787,650.0585106382979,-0.6399764701057639
337,485.6954314720812,649.263959390863,-0.5695480284762424
338,486.7313432835821,648.5870646766169,-0.5531863850359009
339,487.74311926605503,647.7660550458716,-0.5223013827946837
340,489.1698113207547,647.3349056603773,-0.47152312503388194
341,490.61233480176213,647.1894273127754,-0.4830136632951495
342,491.54954954954957,646.2477477477478,-0.4658268298193945
343,492.9240506329114,645.620253164557,-0.4390843211696308
344,494.1140350877193,645.1359649122807,-0.4231917719068368
345,495.25652173913045,644.8478260869565,-0.40114417312104805
346,496.5273631840796,644.4925373134329,-0.4036475450587423
347,497.88709677419354,644.4395161290322,-0.37353782913159217
348,499.18840579710144,644.024154589372,-0.38999874656371547
349,500.45019920318725,643.8685258964143,-0.37873417604010123
350,501.70873786407765,643.7669902912621,-0.36121689139095037
351,502.86,643.105,-0.3512237543618989
352,503.91237113402065,642.6958762886597,-0.35532290058057586
353,505.325,642.88,-0.3484967455603351
354,506.6614583333333,642.890625,-0.3420076204495868
355,507.9914893617021,642.7106382978724,-0.35556389997870524
356,509.0336538461538,642.6346153846154,-0.345537014104633
357,510.25142857142856,642.3485714285714,-0.3365760016111614
358,512.282208588957,644.282208588957,-0.33604886897923236
359,513.1927710843373,643.3795180722891,-0.33828744471083844
360,514.658064516129,643.9677419354839,-0.337909776356417
361,516.0502793296089,644.0782122905027,-0.3385477789535371
362,517.4104477611941,644.8358208955224,-0.3367311221313763
363,519.047619047619,646.1825396825396,-0.320590454623136
364,520.4561403508771,646.7280701754386,-0.33150512120401776
365,522.2903225806451,648.6774193548387,-0.3358986302547137
366,523.5348837209302,648.5116279069767,-0.3541351423359995
367,524.6111111111111,648.2333333333333,-0.36553117018447173
368,525.6170212765958,647.9255319148936,-0.37953229058318216
369,527.0526315789474,648.5263157894736,-0.3925531618465419
370,528.2307692307693,648.4615384615385,-0.4098031739412753
371,529.6285714285714,648.7571428571429,-0.414805283498915
372,531.0408163265306,649.5102040816327,-0.45979484308648105
