FrameNo,Row,Column,Angle
27,3.489795918367347,819.0612244897959,-0.10668607314831362
28,2.5,861.0,-0.0
29,5.235955056179775,819.8651685393259,-0.04019341299630195
30,6.200913242009133,820.4977168949772,-0.023993700697973224
31,7.651041666666667,820.1666666666666,-0.01142085895153412
32,8.867924528301886,821.566037735849,0.04163281245149006
33,9.891891891891891,821.481981981982,0.0463537899620284
34,11.187772925764191,821.8602620087336,0.05676756623650705
35,12.33739837398374,821.8658536585366,0.09142124778358061
36,13.13740458015267,822.6526717557252,0.09946270697905664
37,14.342560553633218,823.1418685121107,0.12146233075168597
38,15.355072463768115,823.9021739130435,0.148875108500522
39,16.474358974358974,823.875,0.15479163632704204
40,17.544585987261147,824.0350318471337,0.1757332552193469
41,18.55140186915888,824.3831775700935,0.1995850336818537
42,19.59375,824.609375,0.21470371309669084
43,20.66115702479339,824.4517906336088,0.23180385015646507
44,21.58560794044665,824.5930521091811,0.25189411606579565
45,22.7465564738292,824.7906336088154,0.27363132406470736
46,23.590551181102363,825.5905511811023,0.29046567316940974
47,24.419354838709676,825.5645161290322,0.31123153918249136
48,25.447552447552447,825.4102564102564,0.34474725306082155
49,26.58447488584475,825.7465753424658,0.3608110889404722
50,27.513274336283185,825.1991150442478,0.398817036250222
51,28.63355408388521,824.5540838852097,0.4160461433424576
52,29.391304347826086,824.6018306636156,0.44601939566798754
53,30.3125,824.7375,0.4740531638962721
54,31.484581497797357,823.931718061674,0.5284398122137085
55,32.27922077922078,823.8506493506493,0.5653918922104806
56,33.63431151241535,822.6681715575621,0.5994569911640546
57,34.58758314855876,822.5033259423503,0.6594936899774376
58,35.26573426573427,822.2377622377622,0.7084287032868354
59,36.05140186915888,821.6308411214953,0.7650741663955676
60,37.36629213483146,820.7595505617977,0.8407875517932107
61,38.44954128440367,820.1032110091743,0.912150044459045
62,39.65695067264574,819.0022421524664,1.0035697746988683
63,40.68070953436807,818.4279379157427,1.1315023199354926
64,41.34,817.6866666666667,1.226391516157897
65,42.970917225950785,816.5995525727069,1.3641315040141662
66,44.312359550561794,815.6202247191011,1.5634984969893244
67,45.51447661469933,814.5189309576838,-1.420272461977124
68,46.19181034482759,813.3448275862069,-1.2999882132611613
69,48.01070663811563,812.4304068522484,-1.1057945033540013
70,49.8762677484787,811.1379310344828,-0.9637315652937551
71,50.66257668711656,810.482617586912,-0.8575894550015265
72,51.877510040160644,809.4216867469879,-0.7651668740796127
73,54.032442748091604,809.0820610687023,-0.7245528478160083
74,55.003710575139145,808.200371057514,-0.6112108619243686
75,56.40185185185185,807.2944444444445,-0.5672104397980821
76,57.911764705882355,806.6985294117648,-0.49387834939221914
77,59.30281690140845,806.4929577464789,-0.44430811509452556
78,60.83859649122807,805.5228070175439,-0.39506625997347183
79,62.08289241622575,804.3121693121693,-0.37102863262303315
80,63.688380281690144,804.7658450704225,-0.33338445179899856
81,64.95897435897436,803.9196581196582,-0.29546064720551896
82,66.26724137931035,803.346551724138,-0.2847741819615031
83,67.922942206655,803.798598949212,-0.2515138844279443
84,69.54166666666667,803.3263888888889,-0.22243521232983918
85,70.69298245614036,803.459649122807,-0.21370651029906243
86,72.28260869565217,803.5833333333334,-0.16237811153975318
87,73.68959107806691,802.6189591078066,-0.1602840758770303
88,75.1395793499044,802.5239005736138,-0.1584141006822926
89,76.46990291262136,803.0019417475728,-0.1210217054066366
90,77.40792079207921,802.4970297029703,-0.10121423225643529
91,79.1775147928994,803.4201183431953,-0.10030576775074404
92,80.5741935483871,803.4086021505376,-0.07447878050937261
93,82.08078602620087,803.4475982532751,-0.04314103207680889
94,83.30913348946136,804.1147540983607,-0.03804029678707415
95,84.98992443324937,804.0831234256927,-0.024292667981164102
96,86.04494382022472,804.9775280898876,0.009262289991852185
97,87.04065040650407,805.4308943089432,0.021079485810595395
98,88.74293785310735,806.867231638418,0.04263138953249158
99,89.56565656565657,806.8552188552188,0.04253325498616229
100,91.21374045801527,807.087786259542,0.07203996021315323
101,92.47222222222223,807.5119047619048,0.06256222454322631
102,93.6,808.4930232558139,0.08531816194495219
103,94.72195121951219,809.3121951219512,0.116672244524214
104,95.80319148936171,809.9893617021277,0.10694620277191023
105,97.03870967741935,811.0258064516129,0.06964814641572055
106,97.87012987012987,812.3376623376623,0.08402807172416059
107,99.10606060606061,813.25,-0.1326184863825308
108,100.3108108108108,814.3851351351351,-0.19349969677023995
109,101.21472392638037,815.3067484662577,-0.17939664420447107
110,102.5,816.2297297297297,-0.1292525783722474
111,103.55952380952381,816.1964285714286,-0.0724664267783234
112,104.40853658536585,816.9634146341464,-0.06524398693142124
113,105.73205741626795,817.8277511961722,-0.035617040235119
114,106.54320987654322,817.4814814814815,-0.030135491034009598
115,107.24696356275304,819.4574898785424,-0.005348386044206739
116,108.375,818.7683823529412,-0.009568795461092997
117,109.61855670103093,818.7697594501718,0.07447208663483189
118,110.03048780487805,820.6981707317074,0.05765024337734544
119,111.04377104377105,820.4478114478114,0.07807744239427969
120,111.9090909090909,820.8705234159779,0.10054731412518982
121,113.13888888888889,820.8981481481482,0.12373255784427496
122,113.92307692307692,821.1656804733727,0.13277789244825236
123,114.65826330532212,821.8627450980392,0.14985412795694503
124,115.30494505494505,822.7802197802198,0.17278131707536448
125,116.18276762402088,822.8798955613577,0.18988093463009087
126,117.21076233183857,822.1434977578475,0.21967872970575472
127,117.90631808278867,823.0,0.24284548351234542
128,118.94196428571429,822.5446428571429,0.26574141655261
129,119.86475409836065,821.9979508196722,0.2779317911485971
130,120.41379310344827,822.6422413793103,0.3064065154237013
131,121.11563169164883,822.3169164882227,0.32796033066445246
132,122.21576763485477,821.8485477178423,0.3659558148473711
133,122.79229122055675,821.7537473233405,0.3835418247555835
134,123.73661670235546,821.1284796573876,0.42200196278937824
135,124.33333333333333,820.92194092827,0.4681335021141955
136,125.19213973799127,820.3711790393013,0.5049738066998738
137,126.22767857142857,819.609375,0.5808425676877863
138,127.04337899543378,818.9611872146119,0.611725183104041
139,127.88470066518848,818.3725055432373,0.7084493794573846
140,128.63007159904535,817.5107398568019,0.7735204761945256
141,129.50566893424036,816.5283446712018,0.8723833495504246
142,130.34134615384616,815.7451923076923,0.9733396847310496
143,130.80516431924883,814.6455399061033,1.0932764942629234
144,131.8321513002364,813.9716312056737,1.2057015069258075
145,132.9611650485437,812.5266990291262,1.463223708127738
146,134.36904761904762,811.4166666666666,-1.4379796422682847
147,135.64772727272725,809.9318181818182,-1.2978573366764086
148,136.5668202764977,809.3410138248848,-1.0545103268822893
149,137.63574660633486,807.868778280543,-0.8863027229031535
150,138.88387096774193,807.1440860215054,-0.7860380717310796
151,140.15433403805497,806.4143763213531,-0.7014231160076391
152,141.3028455284553,805.119918699187,-0.6160230726200934
153,142.67664670658684,804.4530938123753,-0.5313497611193327
154,144.0658914728682,803.9631782945736,-0.48700894271294015
155,145.19540229885058,802.9137931034483,-0.42157893906929994
156,146.46958174904944,802.1596958174905,-0.38798062737672845
157,147.64126394052045,801.8828996282527,-0.34114316490747915
158,148.90170132325142,801.3345935727789,-0.3175460695898798
159,150.09848484848484,800.3333333333334,-0.28719793247490527
160,151.30540037243946,799.4711359404097,-0.259517884320111
161,152.69767441860466,800.0678294573644,-0.23635649731585792
162,153.8958742632613,799.5776031434185,-0.20138171505365615
163,155.20643939393938,799.3484848484849,-0.18362625566918303
164,156.64484126984127,799.6964285714286,-0.1645132415325769
165,157.70611439842207,799.36291913215,-0.14059784521227267
166,159.49902534113062,799.4074074074074,-0.12847796761229902
167,160.60606060606062,799.8585858585859,-0.10573767992837307
168,161.63711340206186,801.2309278350515,-0.05674010608071531
169,162.57174392935983,800.2516556291391,-0.062456574934140724
170,164.1780487804878,800.8024390243902,-0.04144473681387287
171,165.30805687203792,801.6729857819905,-0.009843522782726596
172,166.18639798488664,801.9571788413098,-0.00405023775004674
173,167.55497382198953,802.6570680628272,0.007202078055623691
174,169.0762711864407,802.1271186440678,0.036937597533772064
175,170.13505747126436,803.5086206896551,0.041428753037017506
176,170.82517482517483,804.1258741258741,0.08155112250043393
177,171.9429530201342,804.9664429530201,0.10560317762883417
178,173.30290456431536,804.5228215767635,0.11105582887819003
179,174.18090452261305,806.0402010050251,0.15720806819584762
180,175.33490566037736,806.4481132075472,0.22929762664691758
181,176.37654320987656,807.3395061728395,0.1473893433107409
182,177.55921052631578,808.4605263157895,0.1342295954813882
183,178.11309523809524,809.5119047619048,0.010328962776095473
184,179.1764705882353,811.0235294117647,-0.2440437045175632
185,179.96373056994818,811.7357512953367,-0.2129339004186041
186,180.6039603960396,812.3267326732673,-0.22042039526580318
187,181.63157894736844,812.7177033492823,-0.18432265799577885
188,182.71859296482413,814.0402010050251,-0.15644193513236293
189,183.18454935622316,814.5064377682404,-0.11478131436285008
190,184.18421052631578,814.7593984962406,-0.08866393098850249
191,185.084,815.612,-0.10492551738507401
192,186.06390977443607,816.172932330827,-0.03684392553246014
193,186.9468438538206,817.0498338870432,-0.015987138779312703
194,187.41228070175438,816.5672514619883,0.005488222397829269
195,188.6969696969697,817.267217630854,0.021673710245957926
196,189.28374655647383,816.8402203856749,0.05712960600573145
197,189.93030303030304,818.3969696969697,0.061083284074290325
198,190.76986301369863,818.1616438356165,0.07529866106763781
199,191.39444444444445,819.2694444444444,0.10484783388126606
200,192.2108843537415,818.8684807256236,0.13463298174638869
201,192.6463700234192,819.1873536299765,0.12670845902372296
202,193.5079365079365,819.3083900226758,0.17089803953764537
203,194.47216035634744,818.6881959910913,0.17302475454798757
204,194.9366515837104,819.3868778280543,0.21028156558704533
205,195.64731182795697,819.0559139784946,0.220624427262323
206,196.40254237288136,818.4682203389831,0.26677011635146447
207,196.80176211453744,818.9823788546255,0.28643714681640603
208,197.58471074380165,818.2107438016529,0.29782471680998235
209,198.1415525114155,818.0410958904109,0.33939102099179447
210,198.8876889848812,818.3498920086394,0.36127673069578065
211,199.96516393442624,817.5225409836065,0.41106225465587853
212,200.41333333333333,815.8422222222222,0.4734056920239275
213,200.87841191066997,815.7071960297767,0.5482246084955911
214,201.5860465116279,815.1534883720931,0.6223694783717969
215,202.80941176470589,813.3199999999999,0.6890129946430634
216,202.71428571428572,813.2783251231527,0.7838836027465935
217,204.10204081632654,811.7653061224489,0.8639145511682682
218,204.4362244897959,811.4872448979592,1.0790372335784428
219,205.3554987212276,810.1687979539641,1.3026315416787961
220,205.9752475247525,809.0,1.5076233564473032
221,207.17910447761193,807.8980099502487,-1.2656101220190699
222,207.8034398034398,806.4299754299755,-1.1337686866955465
223,208.8983451536643,804.9976359338061,-0.9386910976570959
224,210.31566820276498,804.2857142857143,-0.7869991575533912
225,211.2325581395349,803.3139534883721,-0.664461137173725
226,212.48583877995642,802.6710239651416,-0.6119992577565574
227,213.42281879194633,801.3780760626398,-0.5340988678870839
228,214.25052631578947,800.3726315789473,-0.4707516131404932
229,215.63434343434344,799.7919191919192,-0.42510618737214534
230,216.48752399232245,798.9692898272552,-0.38677056089760875
231,218.01949317738791,799.1793372319688,-0.34013460651674615
232,219.40337711069418,797.6585365853658,-0.3085297651250116
233,220.15068493150685,797.7553816046967,-0.2800039026183554
234,221.08206106870227,797.486641221374,-0.23368425127244424
235,222.35077519379846,796.8875968992248,-0.2276105597795179
236,223.31144465290805,796.3733583489682,-0.195709137051069
237,224.6869918699187,796.4776422764228,-0.17208363119102307
238,225.80080482897384,796.2535211267606,-0.16027132026587623
239,227.02569169960475,796.4505928853755,-0.13046377871358777
240,228.11875,796.0916666666667,-0.1230532272918667
241,229.26851851851853,796.0949074074074,-0.10607506620432362
242,230.3793103448276,796.2712643678161,-0.06981002385144279
243,231.3707865168539,797.5191011235955,-0.05994654027910682
244,232.54324324324324,797.4729729729729,-0.041023352051241926
245,233.6531100478469,798.0263157894736,-0.02061239656876253
246,234.71625344352617,798.66391184573,-0.01699099126534234
247,235.67574931880108,798.5231607629428,0.03866824469255934
248,236.7442528735632,799.2011494252873,0.03850078151809269
249,237.6782334384858,799.8643533123028,0.04683925590641502
250,238.73287671232876,800.5821917808219,0.04895330271827285
251,239.90666666666667,800.5822222222222,0.08992554491145813
252,240.94117647058823,801.563725490196,0.10564493394997868
253,241.79581151832463,802.5392670157069,0.16639264623534233
254,242.74719101123594,802.8483146067416,0.18252826360736893
255,243.9375,804.0681818181818,0.1824449822541302
256,244.76923076923077,805.2307692307693,0.09805525910036575
257,245.80790960451978,806.7005649717514,-0.10838849464728631
258,246.65,807.6444444444444,-0.21783230941417742
259,247.04216867469881,808.3975903614457,-0.2272819069089546
260,247.83695652173913,808.9402173913044,-0.23018732041455262
261,248.47668393782385,809.6321243523316,-0.22990950424224374
262,249.793893129771,811.2748091603054,-0.19100984094733642
263,250.5846153846154,811.7692307692307,-0.11893526934294275
264,251.19298245614036,812.2491228070176,-0.08320877473905777
265,251.70034843205576,812.7038327526133,-0.07629358992540966
266,252.51086956521738,813.5253623188406,-0.06333581968046018
267,253.12786885245902,813.1344262295082,-0.037702540824979654
268,253.82467532467533,814.25,-0.004339269887953996
269,254.52941176470588,814.7554179566564,0.002160749550241544
270,254.94117647058823,815.1497326203208,0.030579046094866027
271,255.70822281167108,815.289124668435,0.05402292421662194
272,256.30913978494624,815.5322580645161,0.07424637443869742
273,257.0486486486486,815.8567567567568,0.08321258874183163
274,257.9895833333333,815.73125,0.09379485156256882
275,258.35067873303166,815.6606334841629,0.1109231540447344
276,258.8223140495868,816.5392561983471,0.11379402256218643
277,259.2012847965739,815.9014989293362,0.1629119735221262
278,259.8930131004367,816.2838427947598,0.1834148076586452
279,260.6208425720621,815.6762749445676,0.2040126226360008
280,261.4733475479744,815.3518123667377,0.2436679190978671
281,261.7089715536105,816.1378555798688,0.26932564502223266
282,262.51827956989246,815.1569892473118,0.3167717979699097
283,262.9510022271715,814.9755011135858,0.3311187863299188
284,263.96330275229354,814.1123853211009,0.38129702861350845
285,264.55399061032864,813.112676056338,0.41736642133484925
286,265.1650717703349,812.4904306220096,0.47265297477279555
287,265.1580188679245,812.5377358490566,0.5229575669795511
288,265.8009708737864,811.7208737864078,0.5848224543946231
289,266.72405063291137,810.5569620253165,0.6853223817216972
290,267.31466666666665,809.7573333333333,0.7820939333366719
291,267.54120879120876,808.9038461538462,0.8793973078542527
292,269.3814432989691,807.3737113402062,1.1147150493548064
293,269.244094488189,806.4278215223097,1.3957039578129875
294,270.33862433862436,805.2354497354497,-1.4298256435791636
295,271.3192612137203,804.0211081794196,-1.1310281249145078
296,272.46649484536084,802.8556701030927,-0.8933425226784761
297,272.8992443324937,801.6649874055415,-0.777798767808941
298,273.8870192307692,800.8341346153846,-0.639125465199477
299,274.9771167048055,799.7848970251716,-0.6090400018555787
300,275.8659574468085,798.6914893617021,-0.47399523331580423
301,276.94372294372295,798.4848484848485,-0.46523124293306695
302,277.6067415730337,796.523595505618,-0.4079976221229973
303,278.8690987124464,796.3991416309013,-0.3718755848806589
304,280.0756646216769,795.9529652351738,-0.3239866767538454
305,281.4513457556936,795.304347826087,-0.2914534219601836
306,282.3353658536585,795.1239837398374,-0.2853358680621379
307,283.20164609053495,794.3991769547325,-0.24895595474341997
308,284.1938775510204,793.4775510204081,-0.20756167338805742
309,285.3433874709977,793.8816705336427,-0.19349709997440212
310,286.3039014373717,793.7310061601643,-0.16628020068411353
311,286.9328063241107,793.2786561264822,-0.14344603770455328
312,288.5361596009975,793.3316708229427,-0.139025580043536
313,289.4727722772277,793.7772277227723,-0.12020269670488863
314,290.39293139293136,793.960498960499,-0.11414142012494097
315,291.2608695652174,794.7978260869565,-0.07184281504740998
316,292.6194444444444,794.7,-0.06651228698390607
317,293.40966921119593,794.4300254452926,-0.0480587350354563
318,294.6439628482972,795.1919504643963,-0.029769046681511747
319,295.425,795.246875,-0.007599086801534124
320,296.3409090909091,795.4577922077922,0.0027511076970610985
321,297.4145454545455,796.3272727272728,0.010680592454273597
322,298.65634674922603,797.3560371517028,0.030937015678112592
323,299.17131474103587,797.1673306772908,0.06465097921555926
324,300.2719298245614,797.7543859649122,0.05783943006729098
325,301.1456310679612,798.2621359223301,0.09433909691807837
326,301.86567164179104,799.1094527363184,0.12645254502486683
327,302.97714285714284,799.4628571428572,0.13178945723388527
328,303.53246753246754,800.3701298701299,0.14897486922477507
329,304.5496688741722,801.1788079470199,0.14903853822419325
330,305.3661971830986,802.943661971831,0.09029587683428172
331,306.1458333333333,803.9722222222222,-0.023078378734464357
332,306.6993006993007,805.1188811188811,-0.14865041835117423
333,307.48648648648646,805.3675675675676,-0.18787035853838122
334,308.2054054054054,806.3783783783783,-0.2007125164694449
335,309.0899470899471,807.2222222222222,-0.11988299235525857
336,309.6887755102041,807.8316326530612,-0.1013171633825686
337,310.5098039215686,808.6029411764706,-0.10082008423083627
338,311.03418803418805,808.8547008547008,-0.06738584487971465
339,311.73858921161826,809.3651452282157,-0.043926334355514386
340,312.30041152263374,810.2510288065844,-0.023230529328159652
341,313.1362007168459,810.0465949820789,-0.010853199213816429
342,313.6272401433692,811.3118279569892,0.007078508889182908
343,314.6514745308311,811.254691689008,0.019271972264175166
344,315.1377245508982,811.5928143712575,0.043000741165342034
345,315.7243401759531,812.1759530791788,0.053232171895294264
346,316.2690058479532,811.96783625731,0.06107054716081944
347,316.87392550143267,812.2636103151863,0.07919691341328572
348,317.25,812.6125,0.09608620578055956
349,318.3729216152019,811.8171021377673,0.11793709111157842
350,318.70866141732284,813.262467191601,0.1416752264168512
351,319.16890080428954,812.7050938337802,0.1565697891032839
352,319.8668171557562,812.4785553047404,0.14857177241332997
353,320.39302325581394,812.2232558139535,0.1847168394697316
354,320.7922374429224,812.4931506849315,0.19914838209881705
355,321.67191011235957,812.105617977528,0.23529152241770923
356,322.098623853211,812.1284403669724,0.2756892949390421
357,322.85853658536587,811.9560975609756,0.28327683054303726
358,323.0257611241218,811.1615925058547,0.3383859801254753
359,323.80243902439025,810.5024390243902,0.3686819709131117
360,324.1590909090909,810.4090909090909,0.4061527190929193
361,325.0780487804878,809.4317073170732,0.5221191824610351
362,325.9380281690141,808.2732394366197,0.5241081042026206
