FrameNo,Row,Column,Angle
909,534.5882353,916.625387,-0.05852112
910,535.1719298,918.0350877,-0.057280687
911,535.5828402,916.204142,-0.04463859
912,536.3144654,915.5345912,-0.053600919
913,536.9293286,917.2332155,-0.054724355
914,537.5847176,916.3056478,-0.051432906
915,538.1916933,915.9392971,-0.050527652
916,538.75,914.6378205,-0.046147626
917,539.4070513,915.8621795,-0.045178057
918,539.9672619,914.1755952,-0.044897416
919,540.5125786,913.8522013,-0.045363655
920,541.1882716,914.1049383,-0.047484317
921,541.7476341,913.1987382,-0.045082332
922,542.3571429,912.952381,-0.046662974
923,542.9937695,912.6604361,-0.047780238
924,543.6012658,912.6740506,-0.041914467
925,544.2236422,912.6166134,-0.048577538
926,544.7580645,912.2451613,-0.046372718
927,545.3685897,912.3333333,-0.047041694
928,545.9736842,911.9342105,-0.048003802
929,546.5921053,913.3223684,-0.047705043
930,547.1205212,911.9446254,-0.050420975
931,547.691358,911.2530864,-0.047459869
932,548.2132867,911.7797203,-0.055468314
933,548.6656442,911.3711656,-0.059714187
934,549.3301282,911.650641,-0.059737128
935,549.7218543,911.692053,-0.06917407
936,550.2954545,912.461039,-0.06634046
937,550.9288136,913.2542373,-0.075335086
938,551.6496599,914.1496599,-0.071729433
939,552.0380623,913.6643599,-0.078880408
940,552.6053512,912.7090301,-0.086915245
941,553.3017544,914.2631579,-0.093163923
942,554.0352113,914.6971831,-0.083753207
943,554.4432624,915.2907801,-0.102066025
944,555.0071174,915.7046263,-0.109075376
945,555.9333333,918.0078431,-0.14169785
946,556.1467181,917.2355212,-0.133876103
947,556.9460581,918.5145228,-0.159814817
948,557.0419847,918.1984733,-0.169060138
949,557.7510549,918.9873418,-0.182739453
950,558.0991379,919.7758621,-0.188225059
951,558.6764706,920.197479,-0.231723427
952,559.3632287,921.2690583,-0.210140777
953,559.8227273,922.1681818,-0.216348414
954,560.4751131,923.2850679,-0.191159107
955,561.25,923.9181818,-0.125775574
956,561.6513761,924.9495413,-0.055284841
957,562.1961722,926.3397129,0.036241026
958,563.1780822,926.6894977,0.23326594
959,563.4821429,927.8928571,0.320933823
960,564.347619,928.5333333,0.385564232
961,564.5761905,929.2,0.395124556
962,565.4700461,929.6129032,0.394486548
963,565.9772727,930.2454545,0.382841586
964,566.7124464,930.6566524,0.372458096
965,567.2892562,931.1652893,0.370479591
966,567.6610879,931.8117155,0.350762164
967,568.2908367,932.2111554,0.317816274
968,568.9541985,932.6412214,0.327617851
969,569.3667954,932.7606178,0.291222883
970,569.8945455,933.8472727,0.281480861
971,570.7453875,933.7195572,0.281614843
972,571.2646048,934.04811,0.262135223
973,571.8402778,934.3263889,0.253344076
974,572.3310105,934.9547038,0.271000981
975,572.7490909,935.2654545,0.250629085
976,573.8225806,934.4032258,0.243991727
977,574.3183391,934.9896194,0.251800874
978,574.485342,936.6710098,0.245149438
979,575.2171254,935.9755352,0.236570306
980,575.8375,936.86875,0.234112284
981,576.5286195,936.3670034,0.234835251
982,577.0422961,937.1359517,0.235193897
983,577.5610465,937.6686047,0.225858477
984,578.2292994,937.0063694,0.225419447
985,578.6676558,938.379822,0.224445904
986,579.488959,937.4858044,0.224709053
987,579.9598854,938.260745,0.213305443
988,580.4676056,939.2394366,0.223419419
989,581.1703911,938.5195531,0.2202681
990,581.7908847,938.5067024,0.219880903
991,582.0951009,939.259366,0.217991397
992,582.890411,939.4794521,0.219312356
993,583.4548193,939.2831325,0.214599804
994,583.8348083,939.6961652,0.21597042
995,584.4024024,940.042042,0.216178776
996,585.2037618,939.1316614,0.219178796
997,588.4259259,926.4506173,0.231488335
998,589.1623377,925.8766234,0.229130692
999,586.6084507,940.2591549,0.225220077
1000,587.3215434,940.2958199,0.220759922
1001,588.2147239,939.5858896,0.225960602
1002,588.7492447,939.4833837,0.231067239
1003,589.1981707,939.1097561,0.229090069
1004,589.7692308,939.48,0.243824621
1005,590.2546012,939.7852761,0.243588441
1006,590.9354839,939.8709677,0.245040956
1007,591.5847176,938.89701,0.245275258
1008,592.1858736,938.9219331,0.254769027
1009,597.2315789,921.8315789,0.286029488
1010,597.9375,921.90625,0.302403694
1011,598.6666667,922.0215054,0.301112505
1012,599.0898876,922.2808989,0.318417116
1013,599.2058824,924.0882353,0.348651555
1014,600.1904762,923.3690476,0.350263276
1015,600.655914,924.1505376,0.363146138
1016,599.616,928.016,0.406374637
1017,597.8745098,935.2666667,0.353199754
1018,602.5121951,924.8292683,0.391161367
1019,600.8661417,929.4330709,0.460685171
1020,601.3129771,929.519084,0.479403332
1021,603.5978261,926.4782609,0.480227056
1022,600.5879828,933.9527897,0.422223894
1023,602.4305556,931.0138889,0.484851982
1024,603.9918033,928.2295082,0.659549547
1025,603.1036585,930.8658537,0.522489849
1026,604.3602941,929.0514706,0.617781963
1027,605.4592593,927.8518519,0.783879859
1028,604.5479452,929.6164384,0.46746603
1029,608.7826087,928.7971014,0.332720758
1030,605.8488889,928.0755556,0.334939059
1031,606.6711111,927.1911111,-0.118314656
1032,607.4955752,926.4646018,-0.282588687
1033,608.1525424,925.7923729,-0.293304508
1034,608.9469388,925.0040816,-0.315260387
1035,609.376,924.428,-0.277976415
1036,610.3618677,924.1050584,-0.266129733
1037,610.8270677,923.2631579,-0.244586537
1038,611.5591398,922.9139785,-0.238987044
1039,612.2357143,922.8214286,-0.235574216
1040,612.9553265,922.3780069,-0.203238324
1041,613.4280702,921.0526316,-0.184962097
1042,614.2828283,921.3232323,-0.19006622
1043,614.7236842,920.5032895,-0.176173641
1044,615.3942308,920.0512821,-0.152830384
1045,616.1510574,920.0936556,-0.13821909
1046,616.8236994,919.0635838,-0.130843612
1047,617.5027778,919.3388889,-0.13365283
1048,618.179941,919.3244838,-0.12943385
1049,618.7147335,918.799373,-0.108291169
1050,619.3557423,918.5070028,-0.091775989
1051,620.5375,921.1583333,-0.085622222
1052,620.4824561,917.9532164,-0.093207077
1053,621.4564103,918.5179487,-0.094510412
1054,621.8672566,917.6578171,-0.083888509
1055,622.5373563,917.7528736,-0.078898958
1056,623.0141243,917.1836158,-0.076456288
1057,623.7890411,916.7315068,-0.066837899
1058,624.4441176,917.7558824,-0.067854754
1059,625.028169,916.8394366,-0.069248993
1060,625.6395349,916.4563953,-0.061571662
1061,626.2528736,916.4281609,-0.058831995
1062,626.8575851,916.2631579,-0.056326204
1063,628.2318841,923.4202899,-0.042672839
1064,628.1346705,915.7449857,-0.055404957
1065,628.6127168,915.7052023,-0.048702996
1066,629.3644315,915.8542274,-0.050929761
1067,629.9796512,914.877907,-0.045710328
1068,630.6698413,916.3460317,-0.042623187
1069,631.1886792,915.6477987,-0.044989036
1070,631.8527607,915.3619632,-0.037111942
1071,632.4511785,915.9259259,-0.034552505
1072,633.0673401,915.4242424,-0.032766629
1073,633.8264463,915.0523416,-0.044165743
1074,634.2145215,914.3762376,-0.034995058
1075,634.8903654,914.7973422,-0.033308063
1076,635.4724138,914.5793103,-0.030370345
1077,636.0340136,914.6564626,-0.030780282
1078,636.6948529,914.4742647,-0.031538114
1079,637.2408027,914.2107023,-0.029548753
1080,637.8461538,914.9923077,-0.034127858
1081,638.52,915.116,-0.028756992
1082,639.0769231,915.9959514,-0.027628725
1083,639.7549669,915.1523179,-0.026695736
1084,640.1140351,915.622807,-0.033665651
1085,640.8032787,915.2540984,-0.035279246
1086,641.2212766,914.6255319,-0.035372302
1087,642.1324786,916.6495726,-0.038724552
1088,642.728972,916.911215,-0.034861062
1089,643.2465116,917.9674419,-0.033632793
1090,643.7047619,918.0190476,-0.05044306
1091,644.1832461,917.5078534,-0.04237655
1092,644.7314286,918.3428571,-0.044728425
1093,645.3804348,919.4673913,-0.070814148
1094,646.0212766,919.6968085,-0.082906552
1095,646.7597765,920.8603352,-0.058815132
1096,647.2681564,920.4860335,-0.046696505
1097,647.7290323,921.6580645,-0.070173992
1098,648.2371795,922.5961538,-0.064334757
1099,648.8373494,923.5722892,-0.096356229
1100,649.1136364,924.6439394,-0.032984257
1101,649.80625,925.625,-0.017623347
1102,650.295302,926.6577181,0.066509214
1103,650.951049,927.3496503,0.08670162
1104,651.4391892,928.3175676,0.192993021
1105,652.2866667,929.1866667,0.269223901
1106,652.6619718,929.3450704,0.242314775
1107,653.0120482,930.126506,0.254110756
1108,653.8176471,930.6529412,0.26470182
1109,654.3,931.0333333,0.290395609
1110,655.0056497,930.8587571,0.241918055
1111,655.3621622,931.6756757,0.234969801
1112,655.7979798,932.0858586,0.223894258
1113,656.7098446,931.9948187,0.232885596
1114,657.09,932.515,0.235726007
1115,657.6682927,933.1804878,0.21453959
1116,658.2610619,933.6946903,0.217497685
1117,658.6165049,933.8980583,0.221652187
1118,659.3089431,934.6829268,0.217076857
1119,659.8088889,934.1688889,0.211870472
1120,660.4615385,934.7863248,0.210389459
1121,660.9109312,935.2145749,0.205682015
1122,661.3531915,935.6638298,0.207488293
1123,662.0583333,935.3291667,0.202679754
1124,662.712963,934.875,0.202545631
1125,663.0351563,936.3984375,0.195127874
1126,663.5330739,936.9883268,0.192104663
1127,664.0580205,937.4778157,0.20300021
1128,664.7565543,936.9588015,0.200462708
1129,665.0979021,938.2412587,0.197582726
1130,668.5203252,923.796748,0.202184279
1131,666.3860759,938.2436709,0.19643965
1132,666.9292308,938.5046154,0.202936856
1133,667.3177258,938.9565217,0.197718578
1134,667.7815385,939.8492308,0.197569745
1135,668.5548961,939.2522255,0.202090872
1136,668.6351792,940.7296417,0.203747591
1137,669.2076677,940.9265176,0.205192426
1138,669.862069,940.0470219,0.21260945
1139,669.9019608,942.5714286,0.213429693
1140,671.0057307,940.6074499,0.219399791
1141,671.5811209,940.9439528,0.215566399
1142,676.4363636,920.5363636,0.249975103
1143,672.4253247,940.9318182,0.226667753
1144,677.8518519,920.2592593,0.261335331
1145,678.5277778,920.0277778,0.255273982
1146,679.2293578,919.733945,0.279596948
1147,674.816568,940.1745562,0.249259864
1148,675.3968254,939.6984127,0.253051801
1149,675.6030769,941.2830769,0.253565562
1150,676.3291536,940.0971787,0.268452112
1151,677.0248447,939.6521739,0.272268682
1152,677.7056962,939.0031646,0.279007894
1153,677.9495268,939.8958991,0.283809483
1154,678.5736677,939.0501567,0.297281983
1155,679.3660714,938.3630952,0.310803635
1156,679.9936909,937.7602524,0.326055352
1157,686.0107527,921.6344086,0.343898302
1158,680.8344828,937.2413793,0.337428505
1159,687.1276596,922.5744681,0.39529258
1160,687.4545455,923.1313131,0.401288782
1161,687.9009901,923.8811881,0.450143449
1162,688.5806452,923.7741935,0.45493369
1163,688.1982759,925.25,0.546126674
1164,689.1386139,924.7920792,0.562162498
1165,690.5,924.4069767,0.449862956
1166,690.1037736,925.2169811,0.704982074
1167,690.4018692,925.8130841,0.729660662
1168,691.6702128,925.5638298,0.616362487
1169,691.300885,925.9380531,0.834815214
1170,689.3136095,929.6804734,0.601144792
1171,691.8854962,926.648855,0.859299718
1172,692.4603175,926.2857143,1.509836372
1173,692.0993377,927.0596026,0.770028564
1174,690.5247148,927.634981,0.78624804
1175,694.2753623,925.9492754,-0.483156829
1176,693.5308642,925.4506173,-0.656557425
1177,692.5473684,925.3298246,-0.597980536
1178,694.7740113,925.1355932,-0.456757084
1179,694.0309278,924.1202749,-0.538052523
1180,694.9322034,923.4542373,-0.487327913
1181,695.4572368,922.7730263,-0.443722238
1182,696.1594684,922.2757475,-0.434447873
1183,696.6741214,921.514377,-0.391492877
1184,697.3322981,920.9037267,-0.371784098
1185,697.7791798,920.1735016,-0.335445938
1186,698.6075581,919.8023256,-0.293587103
1187,699.4553571,919.4613095,-0.287204976
1188,699.8848315,918.9466292,-0.256970522
1189,700.5983146,918.2359551,-0.239835942
1190,701.4792244,918.1800554,-0.224809545
1191,701.9917355,917.6418733,-0.210168683
1192,702.5081967,916.9344262,-0.201220158
1193,703.310705,916.3655352,-0.170720336
1194,703.9719388,916.4566327,-0.17004911
1195,704.6975,916.26,-0.161519332
1196,705.2810127,916.0987342,-0.152800824
1197,706.0024938,915.7007481,-0.134654782
1198,706.5313283,914.9423559,-0.133883936
1199,707.3170732,915.1707317,-0.119366371
1200,707.9101942,914.6553398,-0.117513987
1201,708.6913876,915.0215311,-0.10474416
1202,709.2604651,914.3186047,-0.105780708
1203,710.218543,917.6523179,-0.083644634
1204,710.5101523,914.4873096,-0.091818225
1205,711.1361257,914.3769634,-0.083064345
1206,711.6747573,913.5436893,-0.081265567
1207,712.3541147,913.1695761,-0.075288233
1208,713.9336283,921.7300885,-0.047626068
1209,713.9784173,917.676259,-0.050107916
1210,715.1513761,921.6238532,-0.038183414
1211,715.1792115,917.172043,-0.049472109
1212,716.2718894,922.0322581,-0.030472876
1213,716.2876254,915.6688963,-0.047940919
1214,716.7002801,913.4817927,-0.040126658
1215,717.2978142,912.5382514,-0.043039317
1216,718.1478873,916.4788732,-0.038992702
1217,718.7795918,917.8734694,-0.0271188
1218,719.2106825,912.3175074,-0.02808546
1219,719.7602339,912.6871345,-0.03125302
1220,720.5674157,911.5983146,-0.021894912
1221,721.1214953,912.8068536,-0.021607952
1222,721.6694215,912.0358127,-0.01991105
1223,722.3514377,912.9105431,-0.019213427
1224,722.8857143,912.9928571,-0.011599111
1225,723.719403,912.7462687,-0.014974891
1226,724.1090226,913.4360902,-0.001453623
1227,724.7031802,912.4240283,0.000770954
1228,725.3370787,913.8988764,-0.003129358
1229,725.8373016,913.718254,-0.000946133
1230,726.5769231,913.457265,0.001185826
1231,726.9590909,914.3136364,0.010207121
1232,727.6759259,915.5,0.004026044
1233,728.0585366,914.3365854,0.012610504
1234,728.9132653,915.3112245,0.010393837
1235,729.4402174,915.4402174,0.016039662
1236,730.1534091,915.5625,0.013941119
1237,730.5859873,916.6878981,0.005144972
1238,731.1733333,916.7533333,0.019900432
1239,731.8097826,916.6032609,0.022889272
1240,732.4263566,917.0310078,0.023536788
1241,732.9857143,924.9857143,0.008094531
1242,733.7419355,918.3806452,0.037195766
1243,734.1696429,918.5625,0.041726689
1244,734.5520833,918.4479167,0.023220269
1245,735.3173077,920.0288462,0.040818124
1246,736.0365854,920.9146341,0.017349239
1247,736.3789474,922.6947368,0.104353199
1248,737.07,923.22,0.107814202
1249,737.619469,924.4690265,0.141525013
1250,737.5425532,925.4574468,0.13117519
1251,738.469697,925.4772727,0.114969458
1252,738.7115385,925.7980769,0.142821274
1253,739.5275591,925.7716535,0.106227268
1254,739.9779412,926.75,0.160631014
1255,740.0775194,927.5813953,0.146980372
1256,740.9302326,927.620155,0.136582646
1257,741.4242424,928.5090909,0.158752776
1258,742.0251572,928.3081761,0.154797489
1259,742.5140845,928.3380282,0.146317448
1260,742.9768786,930.0346821,0.143977166
1261,744.7,920.4857143,0.107961265
1262,744.09375,930.8020833,0.142771782
1263,744.5854922,931.5181347,0.139453042
1264,744.9317073,931.9707317,0.135186458
1265,746.9775281,920.9325843,0.121457397
1266,745.9845361,932.314433,0.136117408
1267,748.1414141,921.0808081,0.138014989
1268,748.6770833,921.0208333,0.167226139
1269,749.3163265,921.1122449,0.159932101
1270,748.0645161,933.9820789,0.155172484
1271,750.6857143,920.1714286,0.171308861
1272,749.0549451,934.5750916,0.160373113
1273,749.6948052,934.7532468,0.16065162
1274,749.9537037,935.8580247,0.16772309
1275,750.4923547,935.4678899,0.166497565
1276,753.8,918.8761905,0.183181445
1277,751.5114754,935.9344262,0.177511295
1278,751.9337748,936.1556291,0.182018313
1279,755.6767677,918.0808081,0.201989334
1280,753.0087464,936.5247813,0.188547436
1281,757.2095238,916.8190476,0.216451817
1282,754.0123077,936.5415385,0.194537763
1283,754.445122,936.9939024,0.201336265
1284,755.1741425,936.7255937,0.211403052
1285,755.7622951,936.5601093,0.213862732
1286,756.1462766,936.6968085,0.218126749
1287,760.9459459,916.6666667,0.259837812
1288,756.7774481,936.7863501,0.228048992
1289,757.712,935.752,0.240370554
1290,762.9333333,915.8285714,0.276216678
1291,758.1483376,937.42711,0.254371597
1292,764.3027523,915.7247706,0.292111623
1293,759.2507375,936.2271386,0.268514603
1294,765.4392523,916.271028,0.312162874
1295,760.6412214,935.2340967,0.284131142
1296,760.9151671,935.7377892,0.298202592
1297,761.5717949,934.5974359,0.298375834
1298,761.7562327,935.0554017,0.312558454
1299,762.4767123,934.1424658,0.329353363
1300,762.6088235,934.6117647,0.337050544
1301,769.8247423,916.9896907,0.361049615
1302,770.5876289,917,0.378712557
1303,770.7171717,918.030303,0.392863266
1304,771.3365385,918.1346154,0.422412578
1305,771.9708738,918.2038835,0.45133902
1306,772.1320755,919,0.499903625
1307,773,918.9591837,0.508199298
1308,773.245283,919.245283,0.55648037
1309,772.9292035,920.4336283,0.690345406
1310,773.9126214,920.184466,0.714931634
1311,775.5421687,919.8072289,0.533381178
1312,775.7752809,920.3595506,0.631444382
1313,774.6403509,921.0964912,1.035986583
1314,774.5378788,921,1.178615652
1315,775.4724409,921.0551181,1.29055612
1316,776.0483871,920.8629032,-1.561158471
1317,777.0081967,920.9016393,-1.162581261
1318,777.3833333,920.9833333,-1.053463151
1319,777.6911765,921.1102941,-0.911518359
1320,774.0516717,922.2553191,1.263594237
1321,774.8862275,921.2095808,-1.423569124
1322,775.2094395,920.3569322,-1.208826125
1323,775.7568389,919.7477204,-0.986060472
1324,780.7708333,920.3055556,-0.419119232
1325,781.3959732,920.2684564,-0.412956048
1326,777.9192201,917.5208914,-0.631926124
1327,778.8869565,916.8,-0.582568123
1328,779.2335165,916.1043956,-0.495025113
1329,779.956044,915.6098901,-0.464989449
1330,780.387013,914.5714286,-0.428752035
1331,781.4750656,914.8818898,-0.403242988
1332,781.9304813,913.8128342,-0.355136084
1333,782.7020725,913.1476684,-0.347943779
1334,783.2592593,912.691358,-0.31919216
1335,784.017284,912.1432099,-0.307094642
1336,784.6019417,911.6966019,-0.269523946
1337,785.4401914,911.4282297,-0.260286927
1338,786.3024831,911.6320542,-0.240776772
1339,786.600939,910.629108,-0.230061985
1340,787.6030369,910.7353579,-0.202401352
1341,787.9599057,909.4198113,-0.192909016
1342,788.9735099,910.187638,-0.181863658
1343,789.4750542,909.1843818,-0.175587156
1344,790.0494845,908.2371134,-0.151658545
1345,790.875,908.7182203,-0.143280488
1346,791.4840909,908.7409091,-0.137578682
1347,792.0328947,907.9561404,-0.129103819
1348,792.6898148,907.6921296,-0.120868065
1349,793.5348361,908.5696721,-0.117731638
1350,794.0564334,908.0248307,-0.103604049
1351,794.6299376,907.1060291,-0.095768666
1352,795.2803738,907.4813084,-0.079144525
1353,797.0567686,916.419214,-0.033837464
1354,796.5949074,907.1087963,-0.066760502
1355,797.751773,912.7411348,-0.047845076
1356,797.8423529,906.8752941,-0.062988757
1357,798.6132075,906.9787736,-0.055481269
1358,799.2436195,907.1902552,-0.051988524
1359,799.8351178,906.8351178,-0.043338048
1360,800.6156584,911.0213523,-0.031400453
1361,800.9413265,906.0127551,-0.032970969
1362,801.6997519,906.1985112,-0.024614782
1363,802.344086,911.4802867,-0.018215937
1364,803.061086,907.1153846,-0.018262137
1365,803.5284281,909.1371237,-0.010241893
1366,804.035503,906.9319527,-0.005859732
1367,804.6447368,906.4394737,-0.002064738
1368,805.3950617,911.9588477,0.005478693
1369,806.1769437,907.0831099,0.009314758
1370,806.5238095,907.6258503,0.014974247
1371,807.4905149,906.699187,0.018015443
1372,808.0031847,907.8025478,0.024757162
1373,808.5823171,908.1859756,0.028336185
1374,808.9689441,907.5341615,0.033773613
1375,809.9150943,907.4402516,0.045317088
1376,810.1275862,908.1103448,0.04464366
1377,810.9839357,908.1445783,0.0601996
1378,811.5473684,908.5508772,0.053636216
1379,812.1380597,909.5634328,0.050134266
1380,812.5395349,909.6883721,0.08122306
1381,813.1710526,910.495614,0.099445947
1382,813.7641509,910.2216981,0.099382759
1383,814.4555556,911.0055556,0.101111804
1384,815.0923077,910.574359,0.110845944
1385,815.6783626,910.9473684,0.138259258
1386,816.3662791,911.1162791,0.136019636
1387,816.945122,912.3109756,0.112316904
1388,817.3636364,912.0247934,0.179781137
1389,818.0075188,913.2631579,0.139385855
1390,818.412844,913.4311927,0.20215323
1391,819.0263158,914.4736842,0.172775205
1392,819.7672414,914.9913793,0.163506073
1393,820,916.380531,0.101336293
1394,820.6203704,917.0925926,0.087992118
1395,820.9327731,918.0084034,0.008931387
1396,821.7280702,918.7105263,-0.000338397
1397,822.0952381,919.3650794,-0.006803433
1398,822.4888889,919.9777778,0.00574845
1399,823.0719424,920.6978417,0.026789632
