FrameNo,Row,Column,Angle
42,23.592493297587133,750.8552278820375,-1.1177603793946926
43,25.41891891891892,750.3474903474903,-1.1182472443740303
44,27.520388349514562,750.0815533980583,-1.10599245343887
45,30.280632411067195,750.094861660079,-1.1003829509300158
46,31.737051792828684,749.6075697211155,-1.1075675486750052
47,34.2972972972973,749.3056133056133,-1.07218719865838
48,36.9002169197397,749.2212581344902,-1.0824909904359106
49,39.086776859504134,748.9628099173553,-1.0608208337189822
50,41.05364806866953,748.6566523605151,-1.0789126966101192
51,43.40256959314775,748.473233404711,-1.0547388840759728
52,46.12026726057906,748.7305122494432,-1.0509616107973163
53,48.548611111111114,748.4583333333334,-1.040517092197439
54,50.55847255369928,748.0978520286396,-1.0485252774977678
55,53.04433497536946,748.2660098522167,-1.038332508427371
56,55.32923832923833,747.8820638820639,-1.0325365809595985
57,57.85085574572127,747.9926650366748,-1.0299904701378804
58,60.357868020304565,747.994923857868,-1.0263937135498131
59,62.23592493297587,747.6916890080429,-1.0160469732203579
60,64.90082644628099,747.8650137741047,-1.0128945824944446
61,66.78901734104046,747.4075144508671,-1.0243774735821871
62,68.84355828220859,747.0214723926381,-1.0242099526024857
63,71.315625,747.065625,-1.0126076461014983
64,74.29738562091504,747.4836601307189,-1.0187827244342713
65,75.578073089701,747.0033222591362,-1.0145309492625507
66,79.08727272727273,747.4,-1.0248886893808533
67,81.16483516483517,747.5641025641025,-1.0135870005093535
68,83.57009345794393,747.3644859813085,-1.0179878647752432
69,85.53639846743295,747.0842911877395,-1.0170902425231996
70,88.33760683760684,747.4871794871794,-1.0191016773006927
71,90.75348837209302,747.6697674418605,-1.0168522864176501
72,94.10303030303031,748.2545454545455,-1.0235154490942484
73,95.60732984293193,747.9214659685864,-1.0317816499067527
74,100.70967741935483,749.4677419354839,-1.0317884791798337
75,105.71428571428571,751.0102040816327,-1.0426111937194187
76,106.25,749.9833333333333,-1.0568368012246827
77,111.9875,751.9875,-1.0799574425140004
78,108.05960264900662,748.4437086092715,-1.0746846141381787
79,112.77777777777777,749.7979797979798,-1.0973926133504281
80,111.13095238095238,747.8869047619048,-1.0980042917662354
81,113.4,748.0457142857143,-1.1079440874639783
82,114.73762376237623,747.6435643564356,-1.1233605816357943
83,117.34649122807018,747.890350877193,-1.1407424965517554
84,119.19339622641509,747.933962264151,-1.1660570813009465
85,121.48523206751055,748.210970464135,-1.1656250789196556
86,124.14068441064639,748.5133079847909,-1.2087095421924299
87,125.76612903225806,748.5322580645161,-1.2006427727284488
88,127.656,748.496,-1.2415963806326324
89,129.99616858237547,748.4827586206897,-1.2654814994985268
90,132.16236162361622,748.9667896678967,-1.2758477788215712
91,134.27179487179487,749.0871794871795,-1.3059041309400286
92,135.97241379310344,749.4241379310345,-1.3342485946231917
93,138.7135922330097,749.7135922330096,-1.3619003779650147
94,140.1326860841424,749.8802588996764,-1.3798811601716559
95,142.27759197324414,750.2976588628762,-1.428891711076936
96,145.1,750.7516129032258,-1.4443803606668886
97,147.3640350877193,750.8026315789474,-1.505773542770375
98,149.16666666666669,751.4455128205128,-1.5357837200876683
99,151.8,751.490625,-1.5547600646373816
100,153.9917695473251,751.917695473251,1.4970388959815992
101,156.02743902439025,752.2591463414634,1.4558100257864388
102,158.40650406504065,752.609756097561,1.3923760664343425
103,160.48546511627907,752.9447674418604,1.38923671533279
104,162.28612716763007,753.3728323699422,1.3369530117037633
105,165.20754716981133,753.6830188679245,1.2333339729589026
106,166.64640883977899,754.1767955801105,1.2148867822996872
107,169.67724867724868,754.3359788359788,1.1468490012425951
108,171.24309392265195,754.9419889502763,1.0969123902829074
109,173.4882506527415,755.4699738903395,1.0532366281238499
110,175.85866666666666,755.7333333333333,0.9949623804538794
111,177.92368421052632,756.2078947368421,0.9553198651650124
112,180.35949367088608,756.6303797468354,0.9129441779247357
113,182.54887218045113,756.8771929824561,0.8779216185985861
114,184.91116751269035,757.0,0.832199862619542
115,186.89901477832512,757.8645320197045,0.8167431361164875
116,189.1356783919598,758.0226130653266,0.7696661973661174
117,191.5216346153846,758.4038461538462,0.758413824525089
118,193.67396593673965,758.6520681265207,0.6894004048473474
119,195.81428571428572,759.1595238095238,0.6846638329528579
120,197.75296912114015,759.3681710213776,0.6592394380953965
121,199.93301435406698,759.9066985645933,0.6568644704085357
122,202.2974828375286,759.9588100686499,0.6403360461278123
123,204.5162037037037,760.2199074074074,0.5953592222494685
124,206.51020408163265,760.6553287981859,0.5892119301680068
125,208.55916473317865,761.1716937354988,0.5831502529416477
126,210.9863325740319,761.3940774487471,0.5594282805060634
127,212.9699769053118,761.4711316397229,0.5442471551856025
128,215.0554272517321,761.8752886836028,0.5422861937624087
129,217.55855855855856,761.8085585585586,0.5364193851869852
130,219.43529411764706,762.5129411764706,0.5236573524832618
131,221.878587196468,762.3068432671082,0.5003955299494639
132,224.01351351351352,762.2477477477478,0.516476668366998
133,226.1044083526682,762.4408352668213,0.4842721488589802
134,227.96882494004797,763.0383693045563,0.5004034521663097
135,230.52122641509433,762.752358490566,0.4837836511815028
136,232.1875,763.1225,0.47444875948082954
137,234.60643564356434,762.9306930693069,0.4691731520266018
138,236.63037974683544,762.9721518987342,0.4675414742472221
139,238.58205128205128,763.3230769230769,0.47149875664376
140,240.53475935828877,763.548128342246,0.47487578850029266
141,242.90813648293965,763.0682414698163,0.4707610591461268
142,244.89893617021278,763.2659574468086,0.46797362951039057
143,247.30708661417322,762.721784776903,0.46907766563009623
144,248.9077809798271,763.7550432276657,0.47136087132602933
145,251.01719197707735,763.4469914040114,0.46963118140065
146,253.365625,762.86875,0.477479992446368
147,254.98705501618122,763.411003236246,0.49306011722209225
148,257.51351351351354,762.6013513513514,0.47742092362947647
149,259.43801652892563,762.5867768595041,0.4872019470114617
150,261.72767857142856,762.1964285714286,0.49359706362273714
151,264.00925925925924,761.5925925925926,0.49989996075930393
152,265.92857142857144,761.7142857142857,0.5069191700351168
153,267.80555555555554,761.5722222222222,0.5206348748948738
154,269.8394495412844,761.2385321100917,0.5299707035211183
155,274.910569105691,756.0650406504064,0.536009054261963
156,276.4230769230769,756.4538461538461,0.5503609780790739
157,278.0214285714286,757.2928571428572,0.5738725060305143
158,278.12994350282486,759.8531073446328,0.5869888891869449
159,279.8313953488372,759.9767441860465,0.6115986833749096
160,281.64912280701753,759.8713450292398,0.6271318919649942
161,283.4094827586207,759.8060344827586,0.6564744008168992
162,285.048128342246,759.8342245989305,0.6748883485355779
163,287.01826484018267,759.7488584474886,0.7049586984221611
164,288.6877637130802,759.464135021097,0.7416779830304617
165,290.9004329004329,758.7835497835498,0.7871488024482187
166,292.4127659574468,758.8425531914894,0.8103202292774511
167,294.5924369747899,758.2058823529412,0.8529827400723239
168,296.37704918032784,757.5532786885246,0.8993008232859957
169,298.21484375,757.3125,0.9532873747776102
170,300.5056603773585,756.7735849056604,1.0391467583975453
171,302.30545454545455,756.5272727272727,1.0946619119256742
172,303.7037037037037,755.5148148148148,1.118834724924561
173,305.42007434944236,755.1412639405205,1.2307238904351692
174,307.7420494699647,754.4381625441696,1.375959636387538
175,309.5358361774744,753.740614334471,1.4568911845500978
176,311.29452054794524,753.1164383561644,1.5174922156377249
177,313.6932907348243,752.5782747603834,-1.4614263691812406
178,315.18729096989966,751.5217391304348,-1.3639606411914604
179,316.7078313253012,750.6716867469879,-1.1862425243147674
180,319.48809523809524,750.1904761904761,-1.1368570046482105
181,321.21574344023327,749.4752186588921,-1.017609394327032
182,323.2296511627907,748.75,-0.92510779020438
183,324.7790055248619,748.2375690607735,-0.8925549593020942
184,327.44086021505376,747.733870967742,-0.8027324000419893
185,329.24266666666665,746.6026666666667,-0.7736269236274754
186,331.1820652173913,746.2690217391305,-0.6848308100414021
187,333.09866666666665,745.2693333333333,-0.6545297240840162
188,335.11315789473684,744.9868421052631,-0.6290361170720973
189,337.01319261213723,744.197889182058,-0.6158762619424786
190,338.997375328084,743.8897637795276,-0.5762272735676519
191,341.2070707070707,743.3863636363636,-0.5531051855796335
192,343.1328320802005,743.0751879699249,-0.5360086424810445
193,345.52525252525254,743.1540404040404,-0.49949167275871614
194,346.9394736842105,741.7026315789474,-0.48246694943908774
195,349.1731266149871,742.1550387596899,-0.4646334936311061
196,351.2718204488778,741.8802992518704,-0.45485011029457656
197,353.48762376237624,741.6410891089109,-0.43586742203164713
198,354.7849740932643,740.4430051813472,-0.41837208399548736
199,357.08839779005524,741.0303867403316,-0.41572716325292763
200,358.8027777777778,740.15,-0.4062919186470594
201,360.99693251533745,740.680981595092,-0.3938967910346337
202,363.3257790368272,741.3257790368272,-0.39721510388277137
203,364.85919540229884,740.7126436781609,-0.375914421491211
204,366.77936962750715,740.2005730659025,-0.37833831377468946
205,368.91186440677967,740.4813559322034,-0.3684463518065955
206,370.8853046594982,740.6200716845879,-0.36104625237496785
207,372.8593272171254,740.434250764526,-0.35620437727371523
208,374.97278911564626,741.2891156462586,-0.36074115782209554
209,376.6875,740.9201388888889,-0.37444612772579394
210,378.6789667896679,741.0110701107011,-0.3759895447427348
211,380.92660550458714,742.0412844036697,-0.3606252318490199
212,382.95145631067965,742.2330097087379,-0.3614839159355823
213,388.70422535211264,753.0281690140845,-0.3481720095292647
214,391.06349206349205,754.5555555555555,-0.402755262946282
215,390.8285714285714,748.3619047619047,-0.3546249705564115
216,394.45901639344265,753.5081967213115,-0.4152745027304623
217,395.28235294117644,750.364705882353,-0.3794796394644205
218,396.5578947368421,749.3052631578947,-0.39373911651532983
219,398.75,749.7613636363636,-0.4261302496526796
220,401.91379310344826,752.2413793103449,-0.46668017227010095
221,402.45454545454544,749.9350649350649,-0.4593619191125985
222,402.8,746.7111111111111,-0.4952760435128436
223,404.1489361702128,746.1702127659574,-0.518144686775337
224,405.2027972027972,745.1608391608391,-0.553092424909353
225,406.85074626865674,745.5,-0.6055546869698616
226,408.51351351351354,746.2972972972973,-0.6432816676726862
227,410.1338028169014,746.1056338028169,-0.6937476318572445
228,411.7755102040816,746.6870748299319,-0.7894579342338284
229,413.98709677419356,747.8064516129032,-0.8302507627814572
230,415.6358024691358,748.1913580246913,-0.9079562650952079
231,417.035294117647,748.8058823529411,-0.9838246048933535
232,419.2634730538922,749.5089820359282,-1.1442675740502677
233,421.00558659217876,750.5139664804469,1.0866101296471384
234,422.91623036649213,751.0,0.8389860918830793
235,425.0673076923077,751.9711538461538,0.5400892028785257
236,426.50655021834064,752.7947598253276,0.4673746639886729
237,428.5514018691589,753.392523364486,0.4280606786205835
238,430.1535087719298,753.780701754386,0.40276391689013846
239,432.02136752136755,754.991452991453,0.373732373231771
240,433.81349206349205,755.2698412698412,0.3616504190217899
241,435.60687022900765,755.9007633587786,0.36618833637489945
242,437.1906614785992,756.5875486381323,0.32495526985784895
243,438.92,757.2618181818182,0.29452145331866175
244,441.0392857142857,756.8964285714286,0.27280738507096014
245,442.58156028368796,757.8475177304964,0.2689066370569255
246,444.3594306049822,758.3416370106761,0.26444342182374964
247,446.1993127147766,759.0240549828179,0.2554249189531572
248,447.9087591240876,759.3686131386861,0.22830892932326338
249,449.6039603960396,759.6105610561056,0.23254303470293577
250,451.56890459363956,758.9328621908128,0.2242758612468752
251,453.27777777777777,759.297619047619,0.22518262087189478
252,454.8546712802768,759.9480968858131,0.2170602098533123
253,456.4843205574913,759.993031358885,0.22055543689213114
254,458.3080168776371,760.126582278481,0.21883857269101484
255,459.96992481203006,759.796992481203,0.21367818886373516
256,461.74590163934425,759.6926229508197,0.22222120008396412
257,463.5044642857143,759.53125,0.2142091022892145
258,465.17622950819674,759.016393442623,0.22776883986952093
259,467.05,758.7277777777778,0.22418432250016257
260,468.58288770053474,759.0909090909091,0.22919017677454365
261,470.51162790697674,757.75,0.23622816820334536
262,472.09493670886076,757.626582278481,0.24099272782582581
263,474.54945054945057,753.5384615384615,0.23689341987130613
264,476.18918918918916,753.7657657657658,0.26040816977347175
265,477.4274809160305,755.1603053435115,0.25990753326833876
266,478.9784172661871,755.4820143884892,0.27853487793114884
267,479.94416243654825,756.9492385786803,0.2820513210016645
268,481.69060773480663,756.7292817679559,0.3118995900822445
269,482.91061452513964,757.4748603351956,0.3338034237627346
270,484.71337579617835,756.4904458598726,0.34733351004462637
271,485.9611111111111,756.95,0.3799108406358419
272,487.2857142857143,757.0687830687831,0.40108403161779255
273,489.1304347826087,755.9565217391305,0.43734036893498257
274,490.76704545454544,755.1647727272727,0.48355372327291335
275,492.0054644808743,755.5737704918033,0.5533132159013716
276,493.40449438202245,754.4943820224719,0.5807438689426234
277,495.07567567567565,754.0324324324324,0.6521357254699847
278,496.3076923076923,753.1153846153846,0.7572905015782113
279,497.97237569060775,752.3149171270718,0.9349044533844476
280,499.57065217391306,751.4021739130435,1.126386540206547
281,501.1443298969072,750.3092783505155,1.4382902489090148
282,502.8814432989691,749.5412371134021,-0.9922036053127228
283,504.2772277227723,748.2524752475248,-0.8020643388208524
284,505.8394495412844,747.6880733944954,-0.6825750734955586
285,507.5281385281385,746.982683982684,-0.6299329825534458
286,509.3090909090909,745.9863636363636,-0.6121120871938679
287,510.65690376569034,745.2133891213389,-0.5340136927382884
288,512.1610169491526,744.4237288135594,-0.4837649230012516
289,513.8070866141733,743.7086614173228,-0.46306170844360767
290,515.5077519379845,743.0581395348837,-0.41492266034600206
291,517.4367816091954,742.904214559387,-0.41268945617486424
292,518.9321428571428,742.025,-0.3652598796141764
293,520.172131147541,741.4959016393443,-0.36701977804817637
294,521.916083916084,741.3251748251748,-0.34410388938813097
295,523.5111111111111,740.9481481481481,-0.34444105219292714
296,524.9901639344263,740.2459016393443,-0.31635580902002686
297,526.8019801980198,740.5577557755776,-0.31253505119219843
298,528.26,740.056,-0.30320364727772153
299,530.1428571428571,740.3376623376623,-0.29568972976338814
300,531.3157894736842,739.6437246963562,-0.28512278297397886
301,533.0409836065573,740.1680327868853,-0.284619570729931
302,534.3299319727892,740.0170068027211,-0.2756738246321947
303,535.93470790378,739.7457044673539,-0.2794804245370108
304,537.7201834862385,740.0779816513761,-0.26855077232122004
305,539.4644549763033,740.5829383886256,-0.2664613355572463
306,544.6515151515151,754.6060606060606,-0.27162274971559774
307,542.411214953271,740.4439252336449,-0.2716059348911929
308,547.741935483871,754.4516129032259,-0.25600390607718176
309,549.1129032258065,753.7903225806451,-0.25894338259734107
310,547.6194029850747,743.2910447761194,-0.2832990661394057
311,550.3247863247864,747.0940170940171,-0.27867467044888705
312,553.7457627118644,753.4915254237288,-0.3042286352150296
313,554.475,750.9625,-0.31674203638800524
314,556.0,750.4883720930233,-0.29953096831720244
315,556.0190476190476,746.2857142857143,-0.35316802503450095
316,559.8571428571429,752.4821428571429,-0.35476586571587077
317,558.561797752809,746.0898876404494,-0.3992796410417686
318,559.6190476190476,745.4285714285714,-0.42369095791300915
319,562.9137931034483,749.551724137931,-0.5133685555887488
320,562.1285714285714,745.7071428571428,-0.5013178248445305
321,563.3055555555555,745.8125,-0.5546889390993429
322,564.6554054054054,746.4662162162163,-0.5656663548555461
323,566.2751677852349,747.1208053691275,-0.6372329911127427
324,567.6577181208054,748.0805369127517,-0.747336597886541
325,569.0943396226415,749.3018867924528,-0.6465011464128506
326,570.54375,749.69375,-0.3997513237374429
327,571.936170212766,751.0851063829787,0.20799111004445744
328,573.5191256830601,751.4207650273224,0.42874230792490603
329,575.0518134715026,752.6113989637306,0.4110028744599312
330,576.6763285024155,753.7487922705313,0.33455640940746423
331,578.1457286432161,754.3869346733668,0.31322122404898417
332,579.4858490566038,755.4905660377358,0.33004027601169095
333,581.0292682926829,755.9658536585366,0.2630976583139612
334,582.3546798029556,756.8866995073892,0.263067968111824
335,584.1095238095238,756.7809523809524,0.2377543067467685
336,585.4859813084112,757.5140186915888,0.22091414494676792
337,586.6990740740741,758.5092592592592,0.21343402937107547
338,588.4766355140187,758.0,0.1951776763263055
339,589.6666666666666,758.820788530466,0.19773108606235063
340,591.377358490566,758.7320754716981,0.18710276700596393
341,592.6008968609865,759.8206278026905,0.17183873016395165
342,594.0686274509803,759.5490196078431,0.1725965816890098
343,595.5972222222222,759.1203703703703,0.17185051374833948
344,596.9150943396227,759.4811320754717,0.1669095725425804
345,598.15,760.33,0.1673953765490704
346,599.7473684210527,759.5263157894736,0.16877420925604306
347,601.1868131868132,759.434065934066,0.16282955827543338
348,602.6923076923077,757.5512820512821,0.17283364557704883
349,603.4954128440367,759.9587155963303,0.17862700316742652
350,605.329268292683,757.4329268292684,0.17345070162426945
351,607.6146788990826,753.0366972477065,0.1754331833985322
352,608.8809523809524,753.2380952380952,0.1935561689335214
353,610.0078125,753.3359375,0.20353260727756903
354,610.4642857142857,756.9,0.19894840198414085
355,611.8857142857142,756.6428571428571,0.2253858387227342
356,612.9671052631579,757.4473684210526,0.2290945779245111
357,614.1292517006802,757.2585034013605,0.24853771322594315
358,615.4,757.6871794871795,0.26087889685768256
359,616.530303030303,757.2272727272727,0.31058322248646747
360,617.8098159509202,757.2269938650306,0.30788858854234064
361,619.0060240963855,756.2951807228916,0.3709991847330012
362,620.3391812865497,756.0058479532164,0.4431904376623183
363,621.5930232558139,755.0872093023256,0.4538562371077988
364,622.8443113772455,754.5329341317365,0.4660019118594209
365,624.0129032258064,753.858064516129,0.5384535761791998
366,625.3558282208589,753.0306748466257,0.6305211911435963
367,626.7884615384615,751.4294871794872,0.6498475882465039
368,627.7484662576687,750.5889570552147,-0.3637611684866335
369,629.0693641618498,749.7225433526012,-0.4808751341769177
370,630.5103092783505,749.0051546391753,-0.5337019676896281
371,631.6329787234042,748.1489361702128,-0.47650003347998476
372,633.0864864864865,747.0594594594595,-0.41470326548373504
373,634.3957219251337,746.4224598930481,-0.36960578079349177
374,635.4889867841409,744.8678414096917,-0.3516247045698672
375,636.9292452830189,744.6698113207547,-0.3361608281785483
376,638.243654822335,743.989847715736,-0.3022369084659677
377,639.4409090909091,743.95,-0.280344844930312
378,640.950495049505,743.2673267326733,-0.27150469148001327
379,642.1691542288557,742.7164179104477,-0.2515441869589356
380,643.5388349514564,742.3786407766991,-0.2449757298769237
381,644.7583333333333,742.175,-0.2298485286119605
382,645.8620689655172,741.7536945812808,-0.2302779252439488
383,647.3401015228426,741.9543147208121,-0.22110796919356263
